0.817887544631958, 546.0
0.8460648059844971, 534.0
0.8719165325164795, 537.0
0.897942066192627, 519.0
0.9228699207305908, 502.0
0.948495626449585, 525.0
0.9733431339263916, 495.0
0.9993815422058105, 527.0
1.024747610092163, 517.0
1.0508594512939453, 514.0
1.0772128105163574, 516.0
1.1068744659423828, 527.0
1.1326630115509033, 522.0
1.158937931060791, 551.0
1.1847496032714844, 508.0
1.2107079029083252, 525.0
1.2379631996154785, 503.0
1.2636244297027588, 514.0
1.288788080215454, 500.0
1.3144457340240479, 514.0
1.340376615524292, 510.0
1.3659381866455078, 524.0
1.3919892311096191, 524.0
1.4222297668457031, 501.0
1.4511778354644775, 542.0
1.4768152236938477, 502.0
1.5022392272949219, 508.0
1.5330543518066406, 503.0
1.5584907531738281, 497.0
1.5834836959838867, 507.0
1.6086080074310303, 503.0
1.636401891708374, 529.0
1.6609108448028564, 491.0
1.6870839595794678, 509.0
1.711366891860962, 500.0
1.7363946437835693, 497.0
1.7610259056091309, 518.0
1.7862274646759033, 511.0
1.8107645511627197, 505.0
1.8366847038269043, 524.0
1.8604676723480225, 498.0
1.8848772048950195, 492.0
1.908473014831543, 481.0
1.9334394931793213, 512.0
1.9577507972717285, 482.0
1.9820365905761719, 494.0
2.0062384605407715, 486.0
2.030622720718384, 481.0
2.054370880126953, 510.0
2.0787811279296875, 515.0
2.1020472049713135, 490.0
2.1294238567352295, 513.0
2.1557037830352783, 492.0
2.1802570819854736, 489.0
2.20395565032959, 484.0
2.23016357421875, 498.0
2.254054307937622, 476.0
2.2784132957458496, 483.0
2.301813840866089, 473.0
2.3261194229125977, 486.0
2.3497583866119385, 502.0
2.372728109359741, 485.0
2.396301031112671, 490.0
2.420471668243408, 487.0
2.4437835216522217, 472.0
2.466712236404419, 481.0
2.490262985229492, 481.0
2.5130367279052734, 481.0
2.5401995182037354, 473.0
2.5644774436950684, 480.0
2.587229013442993, 465.0
2.6105599403381348, 470.0
2.6338930130004883, 470.0
2.6565308570861816, 459.0
2.6794869899749756, 468.0
2.702754497528076, 450.0
2.7250285148620605, 434.0
2.7466447353363037, 442.0
2.7688872814178467, 441.0
2.790578603744507, 446.0
2.8125693798065186, 433.0
2.8341259956359863, 442.0
2.8568108081817627, 436.0
2.8798627853393555, 440.0
2.903468370437622, 462.0
2.925626277923584, 443.0
2.950162172317505, 428.0
2.971377372741699, 434.0
2.993273973464966, 428.0
3.0145294666290283, 405.0
3.037076234817505, 426.0
3.0590105056762695, 418.0
3.0819880962371826, 405.0
3.1020781993865967, 395.0
3.1232166290283203, 397.0
3.1444406509399414, 387.0
3.1650683879852295, 401.0
3.1853079795837402, 398.0
3.2061779499053955, 412.0
3.22652268409729, 413.0
3.247304916381836, 404.0
3.267455577850342, 398.0
3.288747787475586, 386.0
3.309105634689331, 390.0
3.330662250518799, 388.0
3.3517374992370605, 420.0
3.3730390071868896, 383.0
3.3942809104919434, 372.0
3.414973497390747, 373.0
3.4361085891723633, 400.0
3.4583539962768555, 386.0
3.4793002605438232, 381.0
3.501232862472534, 396.0
3.521472692489624, 360.0
3.543747663497925, 391.0
3.5687906742095947, 389.0
3.5902602672576904, 375.0
3.610593795776367, 359.0
3.6354310512542725, 362.0
3.6566271781921387, 361.0
3.678158760070801, 387.0
3.700157642364502, 404.0
3.720787525177002, 370.0
3.742689371109009, 391.0
3.765418767929077, 428.0
3.7877578735351562, 418.0
3.810387372970581, 419.0
3.8324263095855713, 413.0
3.854112386703491, 405.0
3.8771603107452393, 430.0
3.8988845348358154, 417.0
3.922452688217163, 422.0
3.9456582069396973, 443.0
3.968547821044922, 448.0
3.990662097930908, 461.0
4.013961553573608, 469.0
4.036571979522705, 477.0
4.059725999832153, 466.0
4.0844550132751465, 483.0
4.108900547027588, 508.0
4.1323606967926025, 508.0
4.155901193618774, 494.0
4.178851366043091, 513.0
4.203323602676392, 497.0
4.22676682472229, 516.0
4.249572515487671, 480.0
4.276975154876709, 500.0
4.300302028656006, 504.0
4.323195457458496, 514.0
4.34647274017334, 514.0
4.368575572967529, 489.0
4.391761064529419, 502.0
4.414511442184448, 490.0
4.436928987503052, 504.0
4.460497856140137, 495.0
4.483883857727051, 491.0
4.506327152252197, 511.0
4.528996706008911, 506.0
4.5517802238464355, 490.0
4.580225706100464, 511.0
4.60223126411438, 503.0
4.624201059341431, 513.0
4.646622657775879, 501.0
4.66834020614624, 506.0
4.6905601024627686, 489.0
4.713393449783325, 504.0
4.734792232513428, 463.0
4.7566444873809814, 463.0
4.778560161590576, 491.0
4.799136161804199, 450.0
4.819979190826416, 452.0
4.840669631958008, 463.0
4.861767530441284, 438.0
4.881528615951538, 445.0
4.901728391647339, 426.0
4.921216249465942, 427.0
4.941605806350708, 415.0
4.961447477340698, 443.0
4.981076240539551, 423.0
5.001289129257202, 397.0
5.020803689956665, 413.0
5.039921522140503, 403.0
5.0595924854278564, 399.0
5.078729152679443, 374.0
5.098061561584473, 399.0
5.11662220954895, 376.0
5.138471841812134, 377.0
5.157607793807983, 366.0
5.177102565765381, 372.0
5.195878505706787, 352.0
5.214829206466675, 361.0
5.233776330947876, 353.0
5.252536058425903, 369.0
5.270544052124023, 343.0
5.289758920669556, 363.0
5.307974576950073, 346.0
5.326138734817505, 355.0
5.344065427780151, 342.0
5.362158536911011, 350.0
5.379952907562256, 359.0
5.397862195968628, 335.0
5.416041374206543, 351.0
5.4347615242004395, 375.0
5.4558210372924805, 389.0
5.474642038345337, 385.0
5.493457555770874, 378.0
5.512319087982178, 367.0
5.531525373458862, 379.0
5.552042484283447, 409.0
5.574949741363525, 397.0
5.599722623825073, 382.0
5.620469331741333, 406.0
5.640815496444702, 388.0
5.661003112792969, 394.0
5.680612802505493, 364.0
5.700421333312988, 385.0
5.719552993774414, 373.0
5.737452983856201, 335.0
5.755649089813232, 325.0
5.773035764694214, 329.0
5.79107403755188, 328.0
5.808326005935669, 314.0
5.825191259384155, 289.0
5.8412768840789795, 283.0
5.858435392379761, 286.0
5.87530517578125, 284.0
5.8924291133880615, 285.0
5.908748626708984, 263.0
5.924411773681641, 262.0
5.939758777618408, 260.0
5.9555840492248535, 256.0
5.970217704772949, 247.0
5.985485315322876, 233.0
6.000637054443359, 228.0
6.0157318115234375, 226.0
6.0298285484313965, 226.0
6.046173095703125, 229.0
6.060166597366333, 218.0
6.075092077255249, 234.0
6.0898277759552, 223.0
6.104222297668457, 222.0
6.118053436279297, 216.0
6.132222890853882, 218.0
6.145972013473511, 219.0
6.160013914108276, 211.0
6.173798561096191, 230.0
6.189079284667969, 224.0
6.202972888946533, 239.0
6.217642068862915, 244.0
6.233623504638672, 242.0
6.248273134231567, 228.0
6.263305425643921, 234.0
6.278924465179443, 271.0
6.293567895889282, 252.0
6.309268236160278, 289.0
6.325312614440918, 292.0
6.341188907623291, 298.0
6.357303619384766, 291.0
6.37319803237915, 310.0
6.38942551612854, 312.0
6.406371831893921, 309.0
6.422499179840088, 318.0
6.440119504928589, 354.0
6.458933591842651, 323.0
6.475650787353516, 330.0
6.492007493972778, 317.0
6.508534669876099, 319.0
6.525596857070923, 337.0
6.5418970584869385, 325.0
6.558353900909424, 303.0
6.574271202087402, 311.0
6.590386867523193, 323.0
6.610436916351318, 319.0
6.626747131347656, 321.0
6.642798900604248, 312.0
6.660667657852173, 316.0
6.677671432495117, 316.0
6.693660259246826, 307.0
6.709404706954956, 300.0
6.725152015686035, 292.0
6.7414538860321045, 283.0
6.7569358348846436, 288.0
6.772113561630249, 287.0
6.787903308868408, 270.0
6.804080963134766, 301.0
6.81994366645813, 280.0
6.834967851638794, 285.0
6.850995063781738, 286.0
6.866089344024658, 293.0
6.880924940109253, 276.0
6.897136211395264, 300.0
6.913291692733765, 298.0
6.929413557052612, 309.0
6.945170879364014, 305.0
6.961117506027222, 295.0
6.977242469787598, 290.0
6.992964744567871, 304.0
7.007885217666626, 293.0
7.023254871368408, 319.0
7.039042234420776, 305.0
7.054435968399048, 311.0
7.069899559020996, 322.0
7.0850749015808105, 292.0
7.09965705871582, 281.0
7.114904880523682, 298.0
7.129664182662964, 293.0
7.144582986831665, 274.0
7.160083770751953, 274.0
7.1748948097229, 277.0
7.189767360687256, 281.0
7.204337120056152, 285.0
7.221065998077393, 284.0
7.2390806674957275, 295.0
7.254619121551514, 280.0
7.270289897918701, 283.0
7.284910678863525, 275.0
7.299654722213745, 267.0
7.314610958099365, 250.0
7.329652786254883, 264.0
7.34978985786438, 273.0
7.369292497634888, 249.0
7.3830647468566895, 264.0
7.396512746810913, 267.0
7.411545991897583, 263.0
7.425368070602417, 287.0
7.4388885498046875, 290.0
7.4539475440979, 281.0
7.468033790588379, 277.0
7.481189489364624, 267.0
7.494163513183594, 257.0
7.507513523101807, 278.0
7.521223068237305, 263.0
7.535029649734497, 253.0
7.549824953079224, 274.0
7.564338445663452, 270.0
7.579421758651733, 288.0
7.593555927276611, 282.0
7.612990617752075, 291.0
7.628689527511597, 289.0
7.644407749176025, 303.0
7.659024477005005, 291.0
7.6733129024505615, 280.0
7.687624454498291, 281.0
7.7016096115112305, 275.0
7.715929985046387, 286.0
7.729992628097534, 279.0
7.745865821838379, 296.0
7.759434461593628, 286.0
7.7733259201049805, 273.0
7.7874369621276855, 282.0
7.801149368286133, 267.0
7.815335750579834, 279.0
7.829300880432129, 276.0
7.843417406082153, 275.0
7.857317924499512, 262.0
7.871117353439331, 256.0
7.885338068008423, 246.0
7.899370431900024, 259.0
7.916837930679321, 273.0
7.936701059341431, 253.0
7.953362941741943, 270.0
7.967735528945923, 259.0
7.9833080768585205, 253.0
7.997656583786011, 239.0
8.011664867401123, 229.0
8.026952028274536, 245.0
8.041351795196533, 245.0
8.05758810043335, 260.0
8.071852207183838, 274.0
8.086314916610718, 270.0
8.101107358932495, 269.0
8.116219997406006, 265.0
8.130972623825073, 274.0
8.148382425308228, 289.0
8.162476301193237, 260.0
8.176690816879272, 265.0
8.190667152404785, 262.0
8.206680536270142, 254.0
8.220414161682129, 248.0
8.234395742416382, 259.0
8.248526573181152, 250.0
8.262238502502441, 230.0
8.274944305419922, 210.0
8.288214921951294, 227.0
8.301374912261963, 222.0
8.313932418823242, 208.0
8.327345371246338, 211.0
8.340509176254272, 234.0
8.35410451889038, 212.0
8.36703896522522, 206.0
8.379701137542725, 212.0
8.393078327178955, 215.0
8.406184673309326, 221.0
8.418768644332886, 229.0
8.43144965171814, 241.0
8.444967031478882, 237.0
8.46016812324524, 231.0
8.471886396408081, 248.0
8.484283447265625, 243.0
8.4968101978302, 233.0
8.509094953536987, 222.0
8.521585464477539, 232.0
8.534202337265015, 224.0
8.546368598937988, 227.0
8.559643268585205, 246.0
8.572931289672852, 229.0
8.585930824279785, 251.0
8.598598957061768, 236.0
8.611373901367188, 261.0
8.625158071517944, 237.0
8.639787673950195, 225.0
8.65233325958252, 218.0
8.665014743804932, 231.0
8.677301406860352, 222.0
8.689558982849121, 213.0
8.701639890670776, 210.0
8.713946104049683, 186.0
8.726931810379028, 215.0
8.739202976226807, 209.0
8.751628398895264, 210.0
8.764195203781128, 231.0
8.776682138442993, 205.0
8.790196895599365, 211.0
8.802318572998047, 204.0
8.815184116363525, 212.0
8.827662706375122, 214.0
8.840970754623413, 204.0
8.853734731674194, 209.0
8.866621017456055, 198.0
8.879242897033691, 212.0
8.892077684402466, 213.0
8.90613865852356, 216.0
8.919381618499756, 236.0
8.932698488235474, 219.0
8.945817947387695, 237.0
8.959380149841309, 238.0
8.973104238510132, 261.0
8.987523078918457, 265.0
9.00097107887268, 248.0
9.015748500823975, 268.0
9.030094861984253, 252.0
9.046828508377075, 267.0
9.061553478240967, 264.0
9.076693296432495, 278.0
9.091329574584961, 294.0
9.106231927871704, 292.0
9.122077226638794, 313.0
9.138035297393799, 347.0
9.154329299926758, 344.0
9.170922994613647, 359.0
9.188079833984375, 375.0
9.205477714538574, 390.0
9.222787141799927, 384.0
9.241254806518555, 426.0
9.260194778442383, 430.0
9.280236959457397, 453.0
9.299734830856323, 426.0
9.319320678710938, 445.0
9.338903427124023, 442.0
9.358943939208984, 466.0
9.380396842956543, 457.0
9.400628328323364, 441.0
9.421720743179321, 411.0
9.44242262840271, 382.0
9.462154865264893, 390.0
9.479684352874756, 380.0
9.498144626617432, 403.0
9.516645193099976, 402.0
9.535250902175903, 410.0
9.554639101028442, 389.0
9.573591470718384, 400.0
9.59260368347168, 405.0
9.611770629882812, 401.0
9.631000995635986, 397.0
9.654933214187622, 415.0
9.675503253936768, 443.0
9.696934223175049, 459.0
9.717741012573242, 436.0
9.738118410110474, 429.0
9.759824752807617, 451.0
9.781513929367065, 463.0
9.80263900756836, 470.0
9.823744297027588, 444.0
9.844771146774292, 444.0
9.866136074066162, 430.0
9.887160062789917, 435.0
9.90890121459961, 438.0
9.929813146591187, 435.0
9.95043158531189, 446.0
9.971111536026001, 456.0
9.99202036857605, 451.0
10.013316869735718, 448.0
10.034160375595093, 452.0
10.054996490478516, 449.0
10.07508134841919, 421.0
10.094775676727295, 435.0
10.1140878200531, 441.0
10.13291311264038, 401.0
10.152199506759644, 410.0
10.171354293823242, 398.0
10.190775394439697, 412.0
10.210630893707275, 415.0
10.22980523109436, 403.0
10.253247499465942, 432.0
10.273744583129883, 435.0
10.2943856716156, 442.0
10.314898014068604, 430.0
10.335373163223267, 444.0
10.356178045272827, 456.0
10.37719988822937, 476.0
10.398527383804321, 470.0
10.419670581817627, 449.0
10.441262006759644, 459.0
10.463322639465332, 480.0
10.484297037124634, 475.0
10.505176544189453, 468.0
10.52516484260559, 440.0
10.544151544570923, 420.0
10.563559770584106, 422.0
10.582398891448975, 411.0
10.600162506103516, 390.0
10.61749267578125, 385.0
10.634376049041748, 368.0
10.651772499084473, 362.0
10.670113325119019, 327.0
10.68598985671997, 337.0
10.700698375701904, 303.0
10.715471744537354, 294.0
10.72931718826294, 287.0
10.742749452590942, 287.0
10.757179021835327, 289.0
10.770588397979736, 285.0
10.78551435470581, 248.0
10.798280239105225, 212.0
10.811023950576782, 227.0
10.823627233505249, 243.0
10.836263418197632, 243.0
10.848999500274658, 235.0
10.861918449401855, 243.0
10.875207901000977, 219.0
10.887441635131836, 200.0
10.90067720413208, 212.0
10.913100719451904, 223.0
10.925598859786987, 224.0
10.938213109970093, 233.0
10.950812816619873, 223.0
10.963757514953613, 239.0
10.976662158966064, 233.0
10.989609479904175, 244.0
11.002317667007446, 239.0
11.015175819396973, 238.0
11.02876091003418, 232.0
11.041681289672852, 233.0
11.054969072341919, 233.0
11.068168878555298, 239.0
11.08134937286377, 232.0
11.09486198425293, 247.0
11.10831594467163, 250.0
11.121890783309937, 235.0
11.135312557220459, 244.0
11.149965763092041, 260.0
11.164418458938599, 254.0
11.178595304489136, 257.0
11.194169282913208, 285.0
11.209306955337524, 274.0
11.22362208366394, 274.0
11.237807989120483, 255.0
11.252772569656372, 286.0
11.267838478088379, 287.0
11.282987356185913, 312.0
11.298040390014648, 310.0
11.313542604446411, 311.0
11.329217672348022, 312.0
11.344697713851929, 315.0
11.360947370529175, 348.0
11.377954006195068, 351.0
11.394244909286499, 353.0
11.41066026687622, 349.0
11.427821159362793, 343.0
11.444135427474976, 351.0
11.461203336715698, 358.0
11.477856636047363, 357.0
11.494822263717651, 349.0
11.511236906051636, 337.0
11.527519941329956, 343.0
11.543974876403809, 353.0
11.561310529708862, 360.0
11.57841181755066, 330.0
11.594788789749146, 353.0
11.611488819122314, 355.0
11.627494096755981, 342.0
11.643369913101196, 316.0
11.65895414352417, 313.0
11.681418180465698, 323.0
11.697678804397583, 305.0
11.712590217590332, 292.0
11.728074789047241, 319.0
11.743636846542358, 333.0
11.75935697555542, 328.0
11.77558970451355, 318.0
11.7924485206604, 369.0
11.808490991592407, 328.0
11.824828863143921, 362.0
11.84194278717041, 377.0
11.859352111816406, 376.0
11.875910758972168, 352.0
11.892694234848022, 378.0
11.909302949905396, 360.0
11.925859689712524, 352.0
11.942582607269287, 356.0
11.95965051651001, 379.0
11.977581977844238, 370.0
11.99429202079773, 366.0
12.011529445648193, 354.0
12.028328895568848, 353.0
12.04546570777893, 367.0
12.064133167266846, 371.0
12.082796096801758, 366.0
12.099032640457153, 332.0
12.115249633789062, 336.0
12.131656408309937, 333.0
12.149979829788208, 328.0
12.165282726287842, 308.0
12.181896448135376, 339.0
12.19749665260315, 306.0
12.212998628616333, 311.0
12.228626489639282, 318.0
12.243850708007812, 291.0
12.259241819381714, 308.0
12.275094270706177, 323.0
12.29046893119812, 324.0
12.306238174438477, 343.0
12.323186159133911, 344.0
12.339547634124756, 354.0
12.356062412261963, 347.0
12.372681617736816, 355.0
12.388730764389038, 352.0
12.404837369918823, 340.0
12.421808004379272, 347.0
12.43785548210144, 329.0
12.455521583557129, 329.0
12.472947359085083, 339.0
12.488984107971191, 328.0
12.50529408454895, 337.0
12.52124810218811, 345.0
12.53709363937378, 327.0
12.552526235580444, 324.0
12.568298101425171, 311.0
12.583761930465698, 321.0
12.598668098449707, 301.0
12.613994598388672, 314.0
12.628859996795654, 294.0
12.643886089324951, 324.0
12.65932846069336, 319.0
12.67440128326416, 303.0
12.695411443710327, 291.0
12.711605072021484, 269.0
12.7271888256073, 259.0
12.741557598114014, 256.0
12.757651090621948, 258.0
12.773394584655762, 283.0
12.789398908615112, 291.0
12.805379152297974, 305.0
12.821402788162231, 299.0
12.837608814239502, 337.0
12.853739023208618, 349.0
12.870986223220825, 347.0
12.888498067855835, 373.0
12.906501531600952, 393.0
12.92491364479065, 389.0
12.94327688217163, 377.0
12.962411403656006, 371.0
12.980687141418457, 380.0
12.998083114624023, 352.0
13.01579761505127, 373.0
13.033093214035034, 360.0
13.04996633529663, 348.0
13.066983938217163, 348.0
13.083998680114746, 361.0
13.101017951965332, 345.0
13.118634939193726, 358.0
13.134952783584595, 332.0
13.152116060256958, 368.0
13.170161247253418, 347.0
13.186945676803589, 340.0
13.20391583442688, 349.0
13.220075845718384, 329.0
13.236815929412842, 324.0
13.255552053451538, 313.0
13.271780252456665, 330.0
13.287856578826904, 330.0
13.303494691848755, 315.0
13.31965684890747, 318.0
13.33586072921753, 327.0
13.351306438446045, 325.0
13.367633581161499, 333.0
13.384064435958862, 351.0
13.400705099105835, 324.0
13.416582822799683, 305.0
13.432428121566772, 306.0
13.448611974716187, 311.0
13.46462607383728, 295.0
13.480011701583862, 301.0
13.497429609298706, 304.0
13.51320743560791, 273.0
13.529016971588135, 274.0
13.54422903060913, 277.0
13.560405969619751, 271.0
13.577167510986328, 288.0
13.59198260307312, 285.0
13.607335567474365, 286.0
13.623503923416138, 290.0
13.640502452850342, 297.0
13.656055212020874, 287.0
13.67266321182251, 299.0
13.688586950302124, 297.0
13.705647706985474, 315.0
13.725319623947144, 303.0
13.742288589477539, 303.0
13.759663105010986, 307.0
13.77672004699707, 321.0
13.793703317642212, 311.0
13.814304113388062, 337.0
13.831405878067017, 337.0
13.848184585571289, 327.0
13.864331245422363, 322.0
13.88075852394104, 335.0
13.897713422775269, 323.0
13.914438009262085, 341.0
13.931130170822144, 329.0
13.947144746780396, 321.0
13.963939189910889, 316.0
13.981715679168701, 335.0
13.998536348342896, 334.0
14.015935182571411, 331.0
14.03361177444458, 340.0
14.051049709320068, 371.0
14.06847071647644, 337.0
14.085676431655884, 346.0
14.102733612060547, 345.0
14.120134592056274, 356.0
14.138656854629517, 382.0
14.158380031585693, 367.0
14.177572965621948, 391.0
14.197442770004272, 423.0
14.21786618232727, 428.0
14.238152265548706, 449.0
14.259016275405884, 445.0
14.279308557510376, 451.0
14.300480604171753, 463.0
14.321898698806763, 466.0
14.343249559402466, 468.0
14.364197969436646, 463.0
14.385524988174438, 500.0
14.406886577606201, 503.0
14.428358316421509, 481.0
14.451870441436768, 454.0
14.472934246063232, 456.0
14.493787050247192, 454.0
14.515258312225342, 468.0
14.535963296890259, 475.0
14.557070016860962, 454.0
14.577245950698853, 436.0
14.597525596618652, 444.0
14.618106842041016, 430.0
14.63783311843872, 425.0
14.658089637756348, 439.0
14.678261995315552, 425.0
14.697856903076172, 428.0
14.717735052108765, 438.0
14.74160099029541, 423.0
14.76146388053894, 440.0
14.780544519424438, 427.0
14.799545049667358, 409.0
14.818645000457764, 421.0
14.837003231048584, 396.0
14.855355978012085, 399.0
14.873281955718994, 374.0
14.890444278717041, 366.0
14.907876014709473, 365.0
14.925059080123901, 352.0
14.941913604736328, 345.0
14.958532571792603, 340.0
14.9752938747406, 357.0
14.991817474365234, 333.0
15.008530616760254, 363.0
15.02518606185913, 356.0
15.041591167449951, 343.0
15.060160636901855, 353.0
15.076760292053223, 348.0
15.092899322509766, 346.0
15.110770225524902, 346.0
15.127485990524292, 347.0
15.143775224685669, 330.0
15.159932613372803, 343.0
15.175867080688477, 325.0
15.191649913787842, 329.0
15.207741260528564, 333.0
15.222834587097168, 299.0
15.237549781799316, 284.0
15.252527236938477, 305.0
15.26700496673584, 284.0
15.281233310699463, 287.0
15.295831680297852, 262.0
15.309741973876953, 274.0
15.323287963867188, 257.0
15.336565971374512, 248.0
15.349714756011963, 240.0
15.363027095794678, 233.0
15.3758544921875, 231.0
15.388712167739868, 234.0
15.401273727416992, 223.0
15.413764715194702, 223.0
15.42583441734314, 195.0
15.43756914138794, 181.0
15.450523138046265, 191.0
15.462462425231934, 199.0
15.473901748657227, 194.0
15.485288143157959, 175.0
15.496475219726562, 172.0
15.507356643676758, 155.0
15.518230438232422, 161.0
15.52928876876831, 161.0
15.540018558502197, 154.0
15.550953149795532, 158.0
15.56231689453125, 153.0
15.574054718017578, 141.0
15.584933042526245, 143.0
15.595470905303955, 156.0
15.606114149093628, 154.0
15.616623401641846, 165.0
15.627044200897217, 148.0
15.637516260147095, 163.0
15.647799015045166, 153.0
15.658361673355103, 153.0
15.668701171875, 154.0
15.679128885269165, 155.0
15.689486980438232, 163.0
15.70007061958313, 151.0
15.711133480072021, 151.0
15.721803903579712, 160.0
15.732323169708252, 162.0
15.745177507400513, 168.0
15.75808334350586, 152.0
15.768787384033203, 160.0
15.779605150222778, 161.0
15.790369987487793, 174.0
15.802185535430908, 172.0
15.814294576644897, 169.0
15.825278282165527, 176.0
15.836029291152954, 160.0
15.847155332565308, 162.0
15.858607769012451, 157.0
15.869734764099121, 168.0
15.880521297454834, 159.0
15.891922950744629, 137.0
15.9032723903656, 121.0
15.913524150848389, 114.0
15.923858165740967, 123.0
15.93409252166748, 115.0
15.944288969039917, 111.0
15.954934120178223, 126.0
15.966535806655884, 129.0
15.97779369354248, 129.0
15.990237474441528, 142.0
16.00192356109619, 161.0
16.014501333236694, 204.0
16.027716398239136, 237.0
16.04124116897583, 246.0
16.055461168289185, 269.0
16.069718837738037, 278.0
16.084089756011963, 286.0
16.09842848777771, 284.0
16.11377716064453, 278.0
16.128369569778442, 301.0
16.143744945526123, 304.0
16.158491373062134, 298.0
16.17336416244507, 291.0
16.187689542770386, 290.0
16.2023446559906, 282.0
16.216960906982422, 280.0
16.232093811035156, 313.0
16.246949672698975, 307.0
16.26197910308838, 320.0
16.27719259262085, 296.0
16.292223930358887, 319.0
16.307251453399658, 326.0
16.322757720947266, 313.0
16.33957314491272, 311.0
16.354857444763184, 306.0
16.369518995285034, 295.0
16.38652467727661, 312.0
16.40374732017517, 304.0
16.42077350616455, 291.0
16.435235738754272, 291.0
16.4521541595459, 295.0
16.467212915420532, 311.0
16.482271194458008, 294.0
16.497820615768433, 316.0
16.51375675201416, 330.0
16.530829191207886, 353.0
16.54639434814453, 334.0
16.562211275100708, 340.0
16.578933000564575, 362.0
16.59544825553894, 355.0
16.611482620239258, 352.0
16.62740397453308, 354.0
16.643482208251953, 366.0
16.661142349243164, 331.0
16.676512718200684, 333.0
16.691556930541992, 306.0
16.7069091796875, 302.0
16.721616744995117, 303.0
16.735739707946777, 275.0
16.75028395652771, 261.0
16.766149759292603, 249.0
16.780882596969604, 259.0
16.79537034034729, 267.0
16.808689832687378, 256.0
16.82207155227661, 256.0
16.836410999298096, 262.0
16.85036540031433, 294.0
16.865460872650146, 312.0
16.881096124649048, 307.0
16.896275758743286, 306.0
16.910560369491577, 271.0
16.92580819129944, 274.0
16.939902782440186, 266.0
16.954639196395874, 300.0
16.96925163269043, 300.0
16.98438596725464, 306.0
16.99925661087036, 311.0
17.01483416557312, 321.0
17.029739379882812, 304.0
17.045233011245728, 332.0
17.060887336730957, 307.0
17.076534509658813, 315.0
17.091697454452515, 312.0
17.10697364807129, 316.0
17.12193536758423, 316.0
17.137484073638916, 311.0
17.152556657791138, 314.0
17.170081853866577, 338.0
17.185276985168457, 309.0
17.20096182823181, 317.0
17.21660017967224, 333.0
17.232252836227417, 326.0
17.24847173690796, 323.0
17.264028072357178, 325.0
17.279640436172485, 329.0
17.295340538024902, 331.0
17.310951948165894, 338.0
17.326433658599854, 333.0
17.341283559799194, 338.0
17.356478929519653, 326.0
17.37155032157898, 313.0
17.386690378189087, 322.0
17.40201425552368, 313.0
17.416969776153564, 317.0
17.43163561820984, 300.0
17.446059703826904, 310.0
17.46075129508972, 288.0
17.474379062652588, 262.0
17.48790216445923, 259.0
17.501336336135864, 253.0
17.514294147491455, 236.0
17.527302503585815, 238.0
17.540544271469116, 245.0
17.553572177886963, 237.0
17.56765055656433, 264.0
17.5817654132843, 282.0
17.598441123962402, 272.0
17.612443447113037, 278.0
17.62689709663391, 282.0
17.64075541496277, 277.0
17.655181884765625, 297.0
17.669812202453613, 306.0
17.68424391746521, 298.0
17.69864583015442, 292.0
17.71422052383423, 300.0
17.72893214225769, 319.0
17.743816375732422, 317.0
17.758736848831177, 323.0
17.774051904678345, 317.0
17.791791677474976, 294.0
17.80613875389099, 274.0
17.8194522857666, 261.0
17.832553386688232, 241.0
17.84577465057373, 261.0
17.8591251373291, 253.0
17.872355461120605, 253.0
17.885342359542847, 254.0
17.898783206939697, 265.0
17.911944150924683, 260.0
17.92473816871643, 243.0
17.938008785247803, 236.0
17.95110821723938, 257.0
17.96399188041687, 250.0
17.977182865142822, 265.0
17.990371465682983, 263.0
18.003596782684326, 265.0
18.01767063140869, 259.0
18.030991315841675, 265.0
18.0445077419281, 280.0
18.05767250061035, 251.0
18.07150101661682, 272.0
18.085170030593872, 277.0
18.09940195083618, 284.0
18.113654375076294, 290.0
18.12756848335266, 285.0
18.14222502708435, 319.0
18.156446933746338, 310.0
18.1706805229187, 308.0
18.18471670150757, 296.0
18.19909358024597, 317.0
18.213971376419067, 321.0
18.22852087020874, 310.0
18.24333643913269, 322.0
18.258023262023926, 308.0
18.27311062812805, 309.0
18.288109302520752, 319.0
18.302882194519043, 311.0
18.317546606063843, 312.0
18.336883306503296, 290.0
18.35377812385559, 293.0
18.37098240852356, 270.0
18.38586449623108, 277.0
18.401487112045288, 293.0
18.41563868522644, 272.0
18.429965496063232, 285.0
18.444019556045532, 281.0
18.459264516830444, 275.0
18.47335410118103, 292.0
18.48712944984436, 264.0
18.500635147094727, 275.0
18.514054536819458, 255.0
18.527734994888306, 269.0
18.54070472717285, 243.0
18.553749561309814, 247.0
18.567763328552246, 242.0
18.580823183059692, 237.0
18.593592643737793, 246.0
18.606300830841064, 244.0
18.619473934173584, 239.0
18.632454872131348, 241.0
18.645267724990845, 247.0
18.658006191253662, 245.0
18.670881986618042, 248.0
18.68357825279236, 246.0
18.69623351097107, 250.0
18.70900249481201, 250.0
18.721582174301147, 245.0
18.733933687210083, 235.0
18.746719121932983, 249.0
18.75934410095215, 239.0
18.772395372390747, 229.0
18.78508496284485, 249.0
18.80027747154236, 249.0
18.81527018547058, 233.0
18.827874183654785, 239.0
18.840466499328613, 241.0
18.85300874710083, 237.0
18.86548686027527, 234.0
18.878419399261475, 242.0
18.89139723777771, 244.0
18.904125690460205, 228.0
18.916444778442383, 216.0
18.92868399620056, 201.0
18.940452575683594, 190.0
18.952291011810303, 189.0
18.963746786117554, 171.0
18.97634506225586, 165.0
18.987656831741333, 167.0
18.999116897583008, 176.0
19.011104583740234, 187.0
19.023109197616577, 187.0
19.035544872283936, 203.0
19.04854655265808, 240.0
19.06158757209778, 251.0
19.07499361038208, 242.0
19.08816909790039, 241.0
19.101541757583618, 256.0
19.115132570266724, 262.0
19.128552675247192, 243.0
19.14299488067627, 287.0
19.15731692314148, 282.0
19.172141790390015, 267.0
19.18748927116394, 317.0
19.203502655029297, 334.0
19.220003128051758, 348.0
19.23762345314026, 359.0
19.25545835494995, 378.0
19.27331852912903, 389.0
19.29096269607544, 384.0
19.30944061279297, 389.0
19.32716941833496, 405.0
19.345200777053833, 396.0
19.3633234500885, 408.0
19.38234543800354, 412.0
19.40174126625061, 406.0
19.42085599899292, 395.0
19.438804388046265, 375.0
19.458695888519287, 422.0
19.47772526741028, 412.0
19.4966299533844, 407.0
19.514607429504395, 385.0
19.531660556793213, 349.0
19.548214435577393, 346.0
19.56358051300049, 305.0
19.57961344718933, 290.0
19.594395875930786, 287.0
19.60897159576416, 292.0
19.624098777770996, 299.0
19.637919425964355, 259.0
19.652184009552002, 243.0
19.66660785675049, 231.0
19.679144859313965, 207.0
19.69109869003296, 185.0
19.703002214431763, 197.0
19.71438503265381, 185.0
19.72577953338623, 172.0
19.736892461776733, 166.0
19.748811960220337, 156.0
19.759716272354126, 151.0
19.769939184188843, 126.0
19.780316591262817, 135.0
19.79112148284912, 154.0
19.802485942840576, 153.0
19.81421422958374, 155.0
19.827576160430908, 159.0
19.839080333709717, 139.0
19.849855661392212, 146.0
19.861299514770508, 182.0
19.873320817947388, 201.0
19.885581254959106, 216.0
19.898295879364014, 231.0
19.911237955093384, 214.0
19.92413854598999, 232.0
19.9369797706604, 225.0
19.950825452804565, 245.0
19.965006351470947, 244.0
19.97934126853943, 248.0
19.994786977767944, 260.0
20.00942373275757, 258.0
20.025001049041748, 253.0
20.040680408477783, 251.0
20.055819511413574, 260.0
20.07086753845215, 271.0
20.085606813430786, 257.0
20.10141134262085, 268.0
20.116994380950928, 279.0
20.13253426551819, 269.0
20.147392749786377, 266.0
20.161266565322876, 245.0
20.177696228027344, 252.0
20.191035270690918, 221.0
20.204943656921387, 193.0
20.216713190078735, 142.0
20.229294776916504, 138.0
20.24194359779358, 141.0
20.25359272956848, 151.0
20.26572012901306, 105.0
20.27610206604004, 85.0
20.28876543045044, 103.0
20.299327611923218, 146.0
20.31193494796753, 139.0
20.32419753074646, 166.0
20.33648920059204, 170.0
20.348413944244385, 172.0
20.36040735244751, 171.0
20.372560262680054, 188.0
20.38450574874878, 180.0
20.396409273147583, 173.0
20.407822132110596, 165.0
20.420548915863037, 157.0
20.433194160461426, 125.0
20.444054126739502, 127.0
20.456803560256958, 122.0
20.467442750930786, 106.0
20.4780056476593, 77.0
20.48845338821411, 57.0
20.499043703079224, 57.0
20.510650873184204, 75.0
20.520944118499756, 59.0
20.53263568878174, 54.0
20.543105840682983, 65.0
20.555737257003784, 80.0
20.567265272140503, 97.0
20.58041214942932, 133.0
20.593626976013184, 155.0
20.608160734176636, 169.0
20.622301816940308, 203.0
20.638068437576294, 236.0
20.654500007629395, 241.0
20.671778202056885, 280.0
20.689617156982422, 312.0
20.70929741859436, 329.0
20.727218627929688, 355.0
20.745965719223022, 390.0
20.7647385597229, 401.0
20.783921480178833, 419.0
20.803216218948364, 415.0
20.822005033493042, 392.0
20.84694766998291, 390.0
20.865213871002197, 363.0
20.883456468582153, 358.0
20.90182900428772, 374.0
20.920326948165894, 382.0
20.939289093017578, 376.0
20.95843243598938, 386.0
20.9780375957489, 387.0
20.9979031085968, 372.0
21.017228603363037, 413.0
21.036381244659424, 400.0
21.055131196975708, 389.0
21.07538628578186, 381.0
21.094011783599854, 395.0
21.112755060195923, 392.0
21.131641387939453, 380.0
21.150585651397705, 381.0
21.168978929519653, 372.0
21.187424182891846, 373.0
21.20592761039734, 383.0
21.22480320930481, 387.0
21.242695569992065, 369.0
21.261105060577393, 375.0
21.27853798866272, 372.0
21.295560359954834, 348.0
21.313592672348022, 360.0
21.33090114593506, 347.0
21.347556829452515, 330.0
21.364229679107666, 344.0
21.380308151245117, 309.0
21.396588802337646, 318.0
21.41247534751892, 319.0
21.428984880447388, 317.0
21.44553804397583, 335.0
21.462268114089966, 291.0
21.478287935256958, 318.0
21.494253158569336, 302.0
21.509682178497314, 290.0
21.525490283966064, 294.0
21.54066824913025, 276.0
21.556167125701904, 288.0
21.572995901107788, 292.0
21.589017868041992, 286.0
21.60465097427368, 296.0
21.621769905090332, 297.0
21.637139081954956, 301.0
21.65235710144043, 279.0
21.667418003082275, 274.0
21.682960987091064, 293.0
21.69842290878296, 298.0
21.71437644958496, 297.0
21.730388641357422, 288.0
21.745550394058228, 290.0
21.760751008987427, 299.0
21.776233196258545, 303.0
21.791548252105713, 295.0
21.80709457397461, 283.0
21.822190046310425, 286.0
21.837140560150146, 283.0
21.855087518692017, 278.0
21.87277126312256, 279.0
21.887734413146973, 281.0
21.902543544769287, 273.0
21.91732120513916, 277.0
21.93283987045288, 287.0
21.94780921936035, 256.0
21.963072061538696, 289.0
21.979429721832275, 262.0
21.99479627609253, 275.0
22.010297298431396, 279.0
22.025765419006348, 284.0
22.04109001159668, 269.0
22.056647539138794, 282.0
22.07197642326355, 276.0
22.08882427215576, 299.0
22.106019973754883, 295.0
22.12321162223816, 307.0
22.14126181602478, 307.0
22.159310579299927, 319.0
22.178078174591064, 317.0
22.19698190689087, 341.0
22.216325998306274, 352.0
22.235450744628906, 378.0
22.255127429962158, 400.0
22.27544331550598, 440.0
22.29502248764038, 388.0
22.3153018951416, 379.0
22.334628582000732, 366.0
22.353351831436157, 395.0
22.372897386550903, 395.0
22.39203143119812, 405.0
22.41140580177307, 396.0
22.430309295654297, 395.0
22.44880700111389, 371.0
22.46765899658203, 384.0
22.48698377609253, 396.0
22.505740642547607, 370.0
22.524022340774536, 340.0
22.54111909866333, 329.0
22.55914330482483, 353.0
22.577895879745483, 377.0
22.597150325775146, 369.0
22.615824699401855, 363.0
22.635959148406982, 387.0
22.657164335250854, 411.0
22.68017292022705, 470.0
22.702922344207764, 480.0
22.725728750228882, 484.0
22.747561931610107, 478.0
22.769256353378296, 440.0
22.788832664489746, 401.0
22.80855941772461, 401.0
22.82706356048584, 384.0
22.844621181488037, 351.0
22.86160445213318, 324.0
22.88233256340027, 330.0
22.897764921188354, 258.0
22.912578344345093, 239.0
22.92758536338806, 229.0
22.94154143333435, 223.0
22.954795837402344, 207.0
22.9694766998291, 220.0
22.982823610305786, 221.0
22.996000051498413, 207.0
23.00856590270996, 185.0
23.02101969718933, 175.0
23.033437967300415, 169.0
23.045877695083618, 157.0
23.059369802474976, 147.0
23.072962284088135, 160.0
23.085336923599243, 155.0
23.098943948745728, 168.0
23.110731601715088, 151.0
23.122114419937134, 153.0
23.134807586669922, 130.0
23.14618968963623, 125.0
23.157160758972168, 119.0
23.16761612892151, 122.0
23.18020510673523, 107.0
23.191149711608887, 111.0
23.20392608642578, 109.0
23.215261936187744, 120.0
23.22792625427246, 117.0
23.239005088806152, 109.0
23.25018811225891, 107.0
23.260706901550293, 99.0
23.272156715393066, 99.0
23.282793283462524, 100.0
23.294060707092285, 128.0
23.304956674575806, 137.0
23.31620144844055, 140.0
23.32721996307373, 147.0
23.33931279182434, 154.0
23.35090708732605, 163.0
23.362958431243896, 166.0
23.374367475509644, 167.0
23.386347770690918, 161.0
23.398032903671265, 161.0
23.410372257232666, 168.0
23.422021627426147, 163.0
23.436787366867065, 155.0
23.448403358459473, 164.0
23.46292281150818, 150.0
23.474206924438477, 152.0
23.48792028427124, 164.0
23.49946641921997, 153.0
23.511570692062378, 150.0
23.523022413253784, 145.0
23.534911632537842, 142.0
23.546018600463867, 126.0
23.55884027481079, 115.0
23.570234775543213, 113.0
23.58191180229187, 110.0
23.592697143554688, 108.0
23.603944063186646, 97.0
23.614743947982788, 99.0
23.62748646736145, 91.0
23.637970685958862, 84.0
23.649027824401855, 90.0
23.65945029258728, 82.0
23.670149087905884, 79.0
23.682690858840942, 83.0
23.69307041168213, 82.0
23.70329999923706, 86.0
23.71365523338318, 79.0
23.723979949951172, 87.0
23.735068321228027, 94.0
23.745487928390503, 94.0
23.757160902023315, 94.0
23.767719745635986, 107.0
23.77910542488098, 98.0
23.789509773254395, 93.0
23.8019015789032, 113.0
23.813132762908936, 113.0
23.824036836624146, 108.0
23.834728956222534, 114.0
23.846166133880615, 117.0
23.85774326324463, 111.0
23.86902952194214, 130.0
23.87997031211853, 140.0
23.896568536758423, 150.0
23.908191204071045, 141.0
23.920279264450073, 151.0
23.93158507347107, 154.0
23.94357395172119, 158.0
23.955882787704468, 160.0
23.968931436538696, 166.0
23.980920553207397, 176.0
23.993439197540283, 185.0
24.006452322006226, 191.0
24.019935131072998, 194.0
24.03320622444153, 211.0
24.04663872718811, 213.0
24.060726404190063, 248.0
24.07549023628235, 263.0
24.09479522705078, 274.0
24.109049081802368, 282.0
24.12470507621765, 286.0
24.139523029327393, 305.0
24.155871391296387, 313.0
24.172200918197632, 339.0
24.19459104537964, 359.0
24.212928295135498, 357.0
24.23036479949951, 358.0
24.249029874801636, 366.0
24.267746686935425, 380.0
24.28542733192444, 366.0
24.30477261543274, 421.0
24.323028326034546, 403.0
24.34244203567505, 416.0
24.361910343170166, 430.0
24.381545305252075, 425.0
24.402064323425293, 444.0
24.422302722930908, 456.0
24.44429588317871, 473.0
24.467043161392212, 482.0
24.48876142501831, 464.0
24.511571168899536, 492.0
24.53288769721985, 469.0
24.5558500289917, 509.0
24.581242084503174, 491.0
24.603395700454712, 470.0
24.62474489212036, 459.0
24.64690327644348, 473.0
24.668709754943848, 466.0
24.69029140472412, 450.0
24.71101713180542, 450.0
24.732482433319092, 445.0
24.752978801727295, 432.0
24.775173902511597, 436.0
24.796165704727173, 438.0
24.817673921585083, 462.0
24.837313413619995, 420.0
24.858426094055176, 435.0
24.878615140914917, 438.0
24.907859563827515, 441.0
24.929447412490845, 424.0
24.94912624359131, 414.0
24.96848702430725, 427.0
24.987744569778442, 392.0
25.006901264190674, 385.0
25.025815963745117, 388.0
25.044532299041748, 379.0
25.063045740127563, 369.0
25.080836534500122, 365.0
25.098140001296997, 347.0
25.114710569381714, 349.0
25.13221502304077, 345.0
25.147742986679077, 315.0
25.16453456878662, 305.0
25.179978132247925, 298.0
25.196070194244385, 272.0
25.211055517196655, 263.0
25.225809574127197, 268.0
25.240071058273315, 256.0
25.254004955291748, 245.0
25.267425775527954, 232.0
25.281022787094116, 229.0
25.294156551361084, 228.0
25.308387517929077, 229.0
25.321057319641113, 218.0
25.33521008491516, 224.0
25.347776412963867, 214.0
25.36075234413147, 217.0
25.373889684677124, 220.0
25.386781692504883, 225.0
25.39915680885315, 225.0
25.413055181503296, 229.0
25.42523765563965, 218.0
25.437804222106934, 221.0
25.452893495559692, 233.0
25.4657621383667, 214.0
25.478179931640625, 228.0
25.492092609405518, 222.0
25.506123065948486, 212.0
25.518840312957764, 227.0
25.53303623199463, 220.0
25.54575252532959, 216.0
25.558967351913452, 226.0
25.57201099395752, 231.0
25.585451364517212, 211.0
25.598195791244507, 229.0
25.611180543899536, 228.0
25.623932123184204, 227.0
25.63699507713318, 239.0
25.649730443954468, 238.0
25.662758827209473, 229.0
25.67656397819519, 229.0
25.689841270446777, 213.0
25.70222759246826, 211.0
25.714555263519287, 216.0
25.72716784477234, 215.0
25.73946213722229, 211.0
25.751611471176147, 195.0
25.76387643814087, 195.0
25.775745630264282, 191.0
25.787632942199707, 183.0
25.79956340789795, 188.0
25.81124258041382, 169.0
25.824110507965088, 170.0
25.83767342567444, 142.0
25.849006175994873, 157.0
25.860509634017944, 156.0
25.87230682373047, 145.0
25.884276866912842, 129.0
25.896446466445923, 129.0
25.909674882888794, 149.0
25.924985647201538, 135.0
25.937041997909546, 147.0
25.949480772018433, 163.0
25.961446046829224, 179.0
25.974929094314575, 176.0
25.987977027893066, 184.0
26.001282691955566, 212.0
26.01516819000244, 216.0
26.028936624526978, 208.0
26.041761875152588, 215.0
26.054186820983887, 204.0
26.06634259223938, 205.0
26.078165292739868, 188.0
26.090070009231567, 196.0
26.10183835029602, 192.0
26.113213062286377, 165.0
26.124614477157593, 177.0
26.137451648712158, 171.0
26.149219274520874, 174.0
26.1608247756958, 151.0
26.171725511550903, 154.0
26.183398723602295, 168.0
26.196673154830933, 157.0
26.207433462142944, 157.0
26.21833848953247, 154.0
26.229021310806274, 136.0
26.239615201950073, 121.0
26.250287294387817, 116.0
26.26092219352722, 133.0
26.273290872573853, 135.0
26.28467321395874, 158.0
26.29644250869751, 161.0
26.309730052947998, 148.0
26.3219313621521, 154.0
26.33318257331848, 152.0
26.345397472381592, 156.0
26.35891366004944, 168.0
26.371349811553955, 173.0
26.3849835395813, 192.0
26.399245023727417, 187.0
26.411951541900635, 219.0
26.42630362510681, 225.0
26.44144320487976, 238.0
26.45740532875061, 246.0
26.471176862716675, 244.0
26.48517680168152, 225.0
26.498594045639038, 207.0
26.5111665725708, 206.0
26.52343511581421, 171.0
26.53495168685913, 137.0
26.546579122543335, 150.0
26.558274269104004, 141.0
26.570286512374878, 127.0
26.58426070213318, 137.0
26.59755563735962, 141.0
26.61278986930847, 137.0
26.625558376312256, 183.0
26.638670682907104, 242.0
26.65175437927246, 212.0
26.664687156677246, 191.0
26.67748212814331, 182.0
26.69092893600464, 196.0
26.70417022705078, 209.0
26.718589067459106, 217.0
26.732765436172485, 222.0
26.747617483139038, 231.0
26.76163601875305, 247.0
26.7761173248291, 209.0
26.79080581665039, 213.0
26.804059267044067, 240.0
26.817936420440674, 211.0
26.83093523979187, 202.0
26.843113899230957, 188.0
26.855398654937744, 177.0
26.867337465286255, 147.0
26.879327058792114, 148.0
26.89293074607849, 151.0
26.905359268188477, 137.0
26.917487144470215, 163.0
26.931364059448242, 149.0
26.94572353363037, 153.0
26.958000898361206, 129.0
26.97030544281006, 143.0
26.982250928878784, 142.0
26.994165897369385, 107.0
27.00760817527771, 107.0
27.01855778694153, 107.0
27.03019905090332, 113.0
27.04392123222351, 128.0
27.05759596824646, 130.0
27.06992793083191, 141.0
27.081732273101807, 134.0
27.096322536468506, 141.0
27.108290433883667, 155.0
27.120716333389282, 171.0
27.132399797439575, 168.0
27.144362211227417, 151.0
27.15633773803711, 149.0
27.168334007263184, 144.0
27.180471658706665, 163.0
27.19366717338562, 182.0
27.207940101623535, 178.0
27.22090792655945, 173.0
27.233453512191772, 165.0
27.245380878448486, 151.0
27.257438898086548, 155.0
27.270440101623535, 167.0
27.282531261444092, 185.0
27.295925617218018, 189.0
27.308463096618652, 196.0
27.321419954299927, 170.0
27.33341145515442, 180.0
27.345359325408936, 171.0
27.358925819396973, 188.0
27.371330738067627, 186.0
27.38362169265747, 203.0
27.397932529449463, 207.0
27.41193652153015, 214.0
27.42535662651062, 226.0
27.438828706741333, 239.0
27.453851461410522, 244.0
27.468108654022217, 233.0
27.482265949249268, 223.0
27.495656490325928, 207.0
27.508739709854126, 208.0
27.52293872833252, 188.0
27.53693914413452, 207.0
27.550734996795654, 225.0
27.56362009048462, 207.0
27.57792854309082, 207.0
27.591883659362793, 209.0
27.607624053955078, 210.0
27.620656490325928, 202.0
27.63489818572998, 225.0
27.649107456207275, 225.0
27.663841485977173, 242.0
27.678152799606323, 233.0
27.693124294281006, 232.0
27.70687222480774, 232.0
27.720121383666992, 210.0
27.733938217163086, 179.0
27.746524572372437, 156.0
27.75912594795227, 157.0
27.771435022354126, 177.0
27.783746004104614, 206.0
27.796122312545776, 197.0
27.80848264694214, 172.0
27.820716619491577, 154.0
27.83345890045166, 162.0
27.846495866775513, 190.0
27.859095335006714, 200.0
27.871930599212646, 194.0
27.884926319122314, 192.0
27.89680504798889, 166.0
27.90992760658264, 179.0
27.921502590179443, 170.0
27.93342089653015, 165.0
27.946128368377686, 174.0
27.960693836212158, 171.0
27.972530841827393, 177.0
27.9840350151062, 165.0
27.997432470321655, 166.0
28.008941411972046, 163.0
28.020408391952515, 159.0
28.031489610671997, 138.0
28.042420148849487, 138.0
28.05377197265625, 123.0
28.065245151519775, 124.0
28.07597303390503, 123.0
28.0872700214386, 125.0
28.098104000091553, 124.0
28.10866355895996, 119.0
28.11903953552246, 121.0
28.130310535430908, 118.0
28.140918493270874, 125.0
28.151679754257202, 130.0
28.16321611404419, 123.0
28.174232482910156, 137.0
28.185447931289673, 149.0
28.197112321853638, 172.0
28.209001302719116, 180.0
28.221569776535034, 187.0
28.234943389892578, 184.0
28.24893069267273, 189.0
28.261680603027344, 194.0
28.27466654777527, 196.0
28.287818908691406, 212.0
28.302383422851562, 215.0
28.317295789718628, 243.0
28.332422971725464, 264.0
28.34807777404785, 301.0
28.364675998687744, 314.0
28.380258083343506, 311.0
28.39632296562195, 290.0
28.411529541015625, 244.0
28.424930810928345, 160.0
28.437923669815063, 120.0
28.449163675308228, 110.0
28.46174144744873, 99.0
28.472138166427612, 101.0
28.483103036880493, 87.0
28.494916439056396, 62.0
28.505009651184082, 52.0
28.516490697860718, 48.0
28.527451753616333, 67.0
28.53852343559265, 62.0
28.54801082611084, 46.0
28.55730628967285, 38.0
28.56862783432007, 35.0
28.57793688774109, 42.0
28.58894634246826, 46.0
28.59810185432434, 38.0
28.609275341033936, 41.0
28.6183340549469, 33.0
28.62931776046753, 33.0
28.63855743408203, 40.0
28.649765729904175, 47.0
28.65916681289673, 44.0
28.66870379447937, 48.0
28.677759885787964, 47.0
28.687997817993164, 43.0
28.69706082344055, 52.0
28.706416606903076, 54.0
28.71507430076599, 49.0
28.724975109100342, 43.0
28.73336958885193, 41.0
28.742528200149536, 45.0
28.751105785369873, 49.0
28.760396242141724, 41.0
28.768773794174194, 39.0
28.779669046401978, 38.0
28.788126945495605, 36.0
28.79736042022705, 34.0
28.80608320236206, 43.0
28.815102338790894, 38.0
28.82341241836548, 40.0
28.835909843444824, 39.0
28.84617018699646, 36.0
28.85800337791443, 42.0
28.86888313293457, 39.0
28.87907385826111, 42.0
28.887678384780884, 39.0
28.897458791732788, 42.0
28.905946016311646, 43.0
28.916001081466675, 45.0
28.924659252166748, 36.0
28.933892011642456, 39.0
28.942315578460693, 27.0
28.95152759552002, 35.0
28.960061073303223, 25.0
28.972450256347656, 28.0
28.984912395477295, 29.0
28.995373725891113, 32.0
29.003793954849243, 31.0
29.014544010162354, 34.0
29.022791624069214, 34.0
29.031594276428223, 28.0
29.040205001831055, 35.0
29.04887294769287, 28.0
29.056862354278564, 27.0
29.06596040725708, 30.0
29.07472014427185, 32.0
29.084263563156128, 24.0
29.09249472618103, 20.0
29.101085424423218, 19.0
29.10901713371277, 19.0
29.117674112319946, 16.0
29.125609159469604, 16.0
29.134321928024292, 18.0
29.1421320438385, 20.0
