0.8178973197937012, 38.0
0.8460755348205566, 41.0
0.8719263076782227, 43.0
0.8979532718658447, 44.0
0.9228799343109131, 45.0
0.948505163192749, 44.0
0.9733524322509766, 45.0
0.9993925094604492, 43.0
1.0247581005096436, 44.0
1.0508699417114258, 43.0
1.0772228240966797, 43.0
1.1068861484527588, 39.0
1.132671594619751, 44.0
1.158947229385376, 42.0
1.184760332107544, 44.0
1.2107188701629639, 43.0
1.2379734516143799, 41.0
1.263634443283081, 43.0
1.2887983322143555, 45.0
1.3144571781158447, 43.0
1.3403866291046143, 44.0
1.365947961807251, 44.0
1.3919997215270996, 44.0
1.4222397804260254, 38.0
1.4511868953704834, 38.0
1.4768261909484863, 44.0
1.5022501945495605, 45.0
1.533064842224121, 35.0
1.558499813079834, 44.0
1.583493709564209, 45.0
1.6086184978485107, 44.0
1.6364119052886963, 40.0
1.6609199047088623, 46.0
1.6870932579040527, 44.0
1.7113776206970215, 46.0
1.7364041805267334, 46.0
1.761035442352295, 45.0
1.7862389087677002, 45.0
1.8107752799987793, 45.0
1.8366954326629639, 44.0
1.8604762554168701, 47.0
1.8848869800567627, 47.0
1.9084839820861816, 47.0
1.9334490299224854, 45.0
1.9577598571777344, 47.0
1.9820470809936523, 48.0
2.00624942779541, 46.0
2.0306308269500732, 48.0
2.0543806552886963, 47.0
2.078791379928589, 47.0
2.102057456970215, 48.0
2.129434585571289, 41.0
2.155714273452759, 42.0
2.1802682876586914, 46.0
2.2039666175842285, 47.0
2.2301735877990723, 43.0
2.2540640830993652, 48.0
2.278424024581909, 47.0
2.301825761795044, 49.0
2.326127529144287, 48.0
2.34976863861084, 49.0
2.3727381229400635, 49.0
2.396310567855835, 49.0
2.420483112335205, 47.0
2.443793296813965, 49.0
2.466722011566162, 49.0
2.4902727603912354, 49.0
2.5130467414855957, 49.0
2.5402116775512695, 41.0
2.5644869804382324, 47.0
2.5872392654418945, 51.0
2.6105704307556152, 51.0
2.6339049339294434, 49.0
2.656541347503662, 50.0
2.679497718811035, 50.0
2.702765464782715, 50.0
2.7250375747680664, 52.0
2.7466554641723633, 52.0
2.7688980102539062, 52.0
2.7905890941619873, 52.0
2.81257963180542, 53.0
2.834136962890625, 53.0
2.856821298599243, 52.0
2.879873514175415, 52.0
2.9034793376922607, 49.0
2.925637722015381, 51.0
2.9501733779907227, 46.0
2.9713878631591797, 54.0
2.993286371231079, 53.0
3.0145397186279297, 54.0
3.0370869636535645, 51.0
3.0590217113494873, 52.0
3.081998348236084, 50.0
3.1020889282226562, 57.0
3.1232261657714844, 56.0
3.144451379776001, 57.0
3.1650781631469727, 57.0
3.185318946838379, 57.0
3.206188201904297, 56.0
3.226531744003296, 56.0
3.247314691543579, 57.0
3.267465353012085, 57.0
3.288757562637329, 55.0
3.3091166019439697, 56.0
3.3306708335876465, 54.0
3.351747751235962, 54.0
3.3730499744415283, 56.0
3.394291639328003, 56.0
3.4149835109710693, 56.0
3.4361183643341064, 54.0
3.458364963531494, 52.0
3.479310989379883, 54.0
3.501243829727173, 53.0
3.5214834213256836, 56.0
3.543759822845459, 52.0
3.5688014030456543, 44.0
3.5902717113494873, 55.0
3.610605478286743, 56.0
3.6354386806488037, 46.0
3.6566379070281982, 56.0
3.678169012069702, 53.0
3.7001683712005615, 53.0
3.720799684524536, 56.0
3.7427000999450684, 53.0
3.7654287815093994, 50.0
3.787768840789795, 52.0
3.810398817062378, 50.0
3.832435369491577, 52.0
3.8541228771209717, 52.0
3.877171039581299, 51.0
3.898895502090454, 52.0
3.9224631786346436, 51.0
3.945669174194336, 48.0
3.968557834625244, 51.0
3.9906728267669678, 51.0
4.013972282409668, 49.0
4.03658127784729, 50.0
4.059736967086792, 49.0
4.084470748901367, 45.0
4.108910799026489, 47.0
4.132368803024292, 48.0
4.155912637710571, 49.0
4.178861618041992, 49.0
4.203333854675293, 48.0
4.2267773151397705, 48.0
4.249583005905151, 51.0
4.276986360549927, 40.0
4.3003129959106445, 49.0
4.323207855224609, 50.0
4.346483945846558, 50.0
4.368586301803589, 51.0
4.391771554946899, 49.0
4.414522171020508, 50.0
4.43693733215332, 51.0
4.460506439208984, 48.0
4.48389458656311, 52.0
4.506338357925415, 50.0
4.529005527496338, 51.0
4.5517895221710205, 50.0
4.580236911773682, 39.0
4.602242469787598, 53.0
4.624212980270386, 51.0
4.646633148193359, 52.0
4.668350696563721, 52.0
4.690571308135986, 52.0
4.713404893875122, 49.0
4.734803199768066, 54.0
4.756653308868408, 55.0
4.778570652008057, 53.0
4.79914665222168, 56.0
4.819988965988159, 56.0
4.840679883956909, 55.0
4.861779451370239, 56.0
4.881540060043335, 58.0
4.901738882064819, 58.0
4.921228408813477, 59.0
4.941617965698242, 58.0
4.9614577293396, 58.0
4.981085777282715, 60.0
5.001299142837524, 61.0
5.020814418792725, 61.0
5.03993034362793, 61.0
5.059603214263916, 61.0
5.078739166259766, 62.0
5.098072052001953, 62.0
5.116632461547852, 63.0
5.138481855392456, 53.0
5.157619953155518, 61.0
5.1771135330200195, 61.0
5.19588828086853, 62.0
5.214839220046997, 63.0
5.233786344528198, 65.0
5.252546310424805, 64.0
5.270555257797241, 65.0
5.289768695831299, 63.0
5.30798602104187, 64.0
5.3261497020721436, 66.0
5.344075441360474, 65.0
5.362168073654175, 67.0
5.379964351654053, 65.0
5.397873163223267, 67.0
5.4160542488098145, 64.0
5.434769630432129, 64.0
5.455829381942749, 57.0
5.474651575088501, 63.0
5.493467330932617, 62.0
5.512330055236816, 64.0
5.531534910202026, 61.0
5.5520501136779785, 57.0
5.5749616622924805, 49.0
5.599732160568237, 45.0
5.62048077583313, 56.0
5.640823125839233, 58.0
5.66101336479187, 57.0
5.680624008178711, 61.0
5.7004311084747314, 62.0
5.719562530517578, 62.0
5.737461805343628, 66.0
5.755658149719238, 66.0
5.773045539855957, 67.0
5.791083812713623, 69.0
5.808336019515991, 69.0
5.825201034545898, 73.0
5.841286659240723, 75.0
5.858445405960083, 71.0
5.875314950942993, 71.0
5.892439603805542, 71.0
5.908758163452148, 79.0
5.9244208335876465, 79.0
5.939768314361572, 79.0
5.955593585968018, 79.0
5.970227003097534, 83.0
5.985495567321777, 84.0
6.000647068023682, 79.0
6.01574182510376, 87.0
6.029838562011719, 87.0
6.046182870864868, 81.0
6.060176372528076, 88.0
6.075101613998413, 87.0
6.089836597442627, 89.0
6.104231357574463, 88.0
6.118062734603882, 90.0
6.1322314739227295, 91.0
6.145982027053833, 91.0
6.160023212432861, 92.0
6.173808336257935, 90.0
6.189088821411133, 84.0
6.2029829025268555, 88.0
6.217651605606079, 86.0
6.233631372451782, 75.0
6.2482826709747314, 86.0
6.263314485549927, 87.0
6.27893328666687, 79.0
6.2935779094696045, 84.0
6.309277296066284, 80.0
6.325322866439819, 74.0
6.341198205947876, 78.0
6.357313394546509, 74.0
6.373208045959473, 78.0
6.389435768127441, 73.0
6.406382083892822, 72.0
6.422508716583252, 77.0
6.44012975692749, 66.0
6.458940744400024, 66.0
6.475660085678101, 70.0
6.49201774597168, 74.0
6.508544206619263, 72.0
6.525606393814087, 69.0
6.541905403137207, 73.0
6.558366537094116, 72.0
6.574282169342041, 75.0
6.590396881103516, 74.0
6.61044716835022, 60.0
6.626757621765137, 73.0
6.642809152603149, 74.0
6.660678148269653, 70.0
6.6776814460754395, 69.0
6.693670988082886, 75.0
6.709414005279541, 76.0
6.725161075592041, 78.0
6.741465091705322, 73.0
6.756946563720703, 77.0
6.772124290466309, 79.0
6.787914037704468, 75.0
6.804090976715088, 73.0
6.819958925247192, 75.0
6.834977865219116, 81.0
6.851006507873535, 80.0
6.866099834442139, 80.0
6.8809356689453125, 82.0
6.8971476554870605, 73.0
6.9133031368255615, 74.0
6.929423809051514, 74.0
6.945180416107178, 78.0
6.961127519607544, 75.0
6.977252960205078, 74.0
6.992979049682617, 76.0
7.007895231246948, 83.0
7.023265361785889, 78.0
7.0390520095825195, 81.0
7.054445743560791, 78.0
7.06990909576416, 78.0
7.085084915161133, 79.0
7.099666118621826, 83.0
7.114915132522583, 79.0
7.129674434661865, 82.0
7.144591331481934, 81.0
7.160092830657959, 77.0
7.174904823303223, 82.0
7.189777374267578, 81.0
7.2043468952178955, 83.0
7.221077919006348, 76.0
7.239091396331787, 66.0
7.254628658294678, 82.0
7.270299434661865, 81.0
7.284920692443848, 82.0
7.29966402053833, 85.0
7.314622163772583, 81.0
7.329663276672363, 80.0
7.349801778793335, 58.0
7.369300603866577, 74.0
7.383074998855591, 88.0
7.396521329879761, 88.0
7.4115564823150635, 77.0
7.425379037857056, 85.0
7.438896894454956, 87.0
7.453953504562378, 77.0
7.468042850494385, 83.0
7.481198072433472, 90.0
7.494173526763916, 91.0
7.507524490356445, 88.0
7.521233320236206, 86.0
7.535041093826294, 85.0
7.549835920333862, 83.0
7.564348459243774, 87.0
7.5794312953948975, 86.0
7.593564748764038, 89.0
7.613001585006714, 60.0
7.628700494766235, 81.0
7.644418478012085, 79.0
7.65903377532959, 89.0
7.673322439193726, 88.0
7.687633275985718, 87.0
7.701619863510132, 91.0
7.715939521789551, 88.0
7.730003356933594, 90.0
7.74587345123291, 76.0
7.759444713592529, 87.0
7.773334980010986, 90.0
7.7874462604522705, 89.0
7.801185131072998, 92.0
7.815345287322998, 89.0
7.829310178756714, 90.0
7.8434271812438965, 89.0
7.85732889175415, 91.0
7.871127128601074, 92.0
7.885347843170166, 92.0
7.899380207061768, 90.0
7.91685676574707, 69.0
7.93671178817749, 73.0
7.953372478485107, 86.0
7.967746019363403, 88.0
7.983318567276001, 79.0
7.997760057449341, 84.0
8.011675834655762, 88.0
8.026963710784912, 79.0
8.041362524032593, 88.0
8.057597160339355, 73.0
8.07186222076416, 85.0
8.08632516860962, 87.0
8.101117610931396, 82.0
8.116230010986328, 81.0
8.130982875823975, 85.0
8.148392677307129, 69.0
8.162487030029297, 90.0
8.176701784133911, 89.0
8.190678119659424, 91.0
8.206692457199097, 79.0
8.22042441368103, 93.0
8.234405517578125, 91.0
8.248537540435791, 87.0
8.262248277664185, 97.0
8.274954557418823, 99.0
8.288225173950195, 95.0
8.301384925842285, 98.0
8.313942193984985, 100.0
8.327356576919556, 92.0
8.34051775932312, 99.0
8.354114294052124, 95.0
8.3670494556427, 96.0
8.379712343215942, 103.0
8.393088579177856, 96.0
8.406193494796753, 95.0
8.41877794265747, 105.0
8.431459188461304, 103.0
8.44497799873352, 93.0
8.46017599105835, 82.0
8.471896171569824, 103.0
8.484292984008789, 106.0
8.496820211410522, 108.0
8.509104013442993, 107.0
8.521595478057861, 102.0
8.534212112426758, 103.0
8.546378135681152, 108.0
8.559653997421265, 94.0
8.572941303253174, 98.0
8.58594036102295, 94.0
8.598607778549194, 102.0
8.61138367652893, 102.0
8.625168800354004, 93.0
8.639797687530518, 90.0
8.652341604232788, 105.0
8.665023803710938, 105.0
8.677310943603516, 106.0
8.689568758010864, 107.0
8.70164966583252, 108.0
8.713956594467163, 106.0
8.726942539215088, 98.0
8.739210605621338, 104.0
8.751637697219849, 104.0
8.764204025268555, 103.0
8.776691913604736, 105.0
8.790210723876953, 95.0
8.80232858657837, 108.0
8.815192699432373, 104.0
8.827673196792603, 105.0
8.840980529785156, 96.0
8.853742837905884, 102.0
8.866630792617798, 101.0
8.879252195358276, 102.0
8.89208722114563, 101.0
8.906148672103882, 89.0
8.91939091682434, 97.0
8.932707786560059, 98.0
8.945826530456543, 95.0
8.959388732910156, 94.0
8.973114013671875, 93.0
8.9875328540802, 84.0
9.000981330871582, 92.0
9.015758752822876, 82.0
9.030105829238892, 85.0
9.046838521957397, 70.0
9.061563968658447, 79.0
9.076703786849976, 77.0
9.091341257095337, 80.0
9.106242418289185, 78.0
9.122087240219116, 72.0
9.1380455493927, 72.0
9.15433931350708, 71.0
9.170932531356812, 69.0
9.188089847564697, 66.0
9.205487489700317, 65.0
9.222797393798828, 65.0
9.241262912750244, 60.0
9.260205268859863, 59.0
9.28024959564209, 56.0
9.299745321273804, 57.0
9.319331407546997, 57.0
9.33891487121582, 57.0
9.358955383300781, 56.0
9.380409240722656, 51.0
9.40064001083374, 55.0
9.421735048294067, 58.0
9.442432880401611, 54.0
9.462165117263794, 56.0
9.479694604873657, 64.0
9.498154163360596, 61.0
9.516655445098877, 61.0
9.535260677337646, 60.0
9.554648160934448, 58.0
9.573601484298706, 59.0
9.592612743377686, 59.0
9.611779928207397, 58.0
9.631011009216309, 58.0
9.654942512512207, 45.0
9.675513505935669, 54.0
9.69694471359253, 52.0
9.717751264572144, 53.0
9.738127946853638, 54.0
9.759836196899414, 51.0
9.781523942947388, 51.0
9.802653312683105, 53.0
9.823755502700806, 52.0
9.844779968261719, 53.0
9.866145849227905, 52.0
9.887170314788818, 52.0
9.90891170501709, 51.0
9.929824113845825, 53.0
9.950441122055054, 54.0
9.971121788024902, 53.0
9.992029666900635, 53.0
10.013328075408936, 52.0
10.034169912338257, 53.0
10.0550057888031, 53.0
10.075092077255249, 56.0
10.094785928726196, 57.0
10.114097356796265, 58.0
10.132922887802124, 59.0
10.15220832824707, 58.0
10.171364545822144, 58.0
10.190785884857178, 58.0
10.210640907287598, 56.0
10.229814529418945, 59.0
10.253257513046265, 47.0
10.273755073547363, 54.0
10.294395208358765, 53.0
10.314908266067505, 54.0
10.33538293838501, 54.0
10.356188297271729, 53.0
10.377209901809692, 53.0
10.398537397384644, 52.0
10.41968035697937, 52.0
10.441271781921387, 51.0
10.463332176208496, 50.0
10.484307527542114, 53.0
10.505186319351196, 53.0
10.525176048278809, 55.0
10.544160842895508, 59.0
10.563570022583008, 57.0
10.582408666610718, 60.0
10.600172996520996, 63.0
10.617501735687256, 66.0
10.63438630104065, 68.0
10.651784181594849, 65.0
10.67012333869934, 61.0
10.686000108718872, 72.0
10.700709104537964, 79.0
10.715481519699097, 79.0
10.729327201843262, 85.0
10.742758989334106, 88.0
10.757188081741333, 81.0
10.770598649978638, 88.0
10.785524368286133, 78.0
10.79828953742981, 95.0
10.811033010482788, 93.0
10.823635578155518, 94.0
10.836272478103638, 94.0
10.84900951385498, 93.0
10.861928701400757, 93.0
10.87521767616272, 89.0
10.887450933456421, 98.0
10.900686979293823, 90.0
10.913110494613647, 96.0
10.925608396530151, 95.0
10.938221454620361, 94.0
10.950822353363037, 94.0
10.963767528533936, 92.0
10.976672649383545, 93.0
10.989620208740234, 92.0
11.002327919006348, 94.0
11.015185832977295, 93.0
11.028770208358765, 89.0
11.041691541671753, 92.0
11.054977655410767, 89.0
11.0681791305542, 91.0
11.08135986328125, 90.0
11.094871759414673, 88.0
11.108326435089111, 88.0
11.121901035308838, 88.0
11.135322570800781, 88.0
11.14997410774231, 80.0
11.164433717727661, 81.0
11.178605318069458, 83.0
11.194180965423584, 74.0
11.209317445755005, 77.0
11.223631143569946, 81.0
11.237818717956543, 82.0
11.252782821655273, 77.0
11.26785683631897, 77.0
11.282998085021973, 76.0
11.298050880432129, 77.0
11.313552618026733, 74.0
11.329227924346924, 74.0
11.344708919525146, 74.0
11.360957860946655, 70.0
11.37796425819397, 67.0
11.3942551612854, 70.0
11.410669803619385, 70.0
11.427831888198853, 66.0
11.444145679473877, 70.0
11.461213111877441, 66.0
11.477867841720581, 68.0
11.494832515716553, 68.0
11.511247873306274, 70.0
11.52752947807312, 70.0
11.543984651565552, 69.0
11.561321020126343, 65.0
11.578421354293823, 67.0
11.594799757003784, 70.0
11.611499071121216, 69.0
11.627504825592041, 71.0
11.643380165100098, 73.0
11.658969163894653, 75.0
11.681428909301758, 49.0
11.697689056396484, 70.0
11.712600231170654, 78.0
11.7280855178833, 75.0
11.743647575378418, 74.0
11.759370803833008, 73.0
11.775599956512451, 71.0
11.792459726333618, 68.0
11.808501243591309, 71.0
11.824839115142822, 70.0
11.841952562332153, 67.0
11.859363555908203, 65.0
11.875920295715332, 69.0
11.89270544052124, 68.0
11.909312963485718, 68.0
11.925870180130005, 69.0
11.942593097686768, 68.0
11.959660768508911, 67.0
11.97759199142456, 64.0
11.99430251121521, 69.0
12.011538982391357, 66.0
12.028339147567749, 68.0
12.045475721359253, 66.0
12.064143419265747, 60.0
12.082806825637817, 60.0
12.099042654037476, 70.0
12.115261554718018, 70.0
12.131667852401733, 70.0
12.149988412857056, 61.0
12.165292739868164, 76.0
12.181907176971436, 70.0
12.19750690460205, 74.0
12.213009119033813, 75.0
12.228636980056763, 74.0
12.243860960006714, 76.0
12.259251594543457, 75.0
12.27510404586792, 73.0
12.290479183197021, 75.0
12.306247234344482, 73.0
12.323195695877075, 67.0
12.339558601379395, 70.0
12.356072187423706, 70.0
12.37269139289856, 69.0
12.388741254806519, 71.0
12.404853820800781, 71.0
12.421818494796753, 67.0
12.437864780426025, 72.0
12.455528497695923, 64.0
12.472958087921143, 65.0
12.488993883132935, 72.0
12.50530457496643, 71.0
12.521257877349854, 72.0
12.537103176116943, 73.0
12.552534580230713, 75.0
12.56830906867981, 73.0
12.583771467208862, 74.0
12.598677158355713, 77.0
12.614004611968994, 75.0
12.628870010375977, 78.0
12.643895149230957, 77.0
12.659338235855103, 75.0
12.67441177368164, 77.0
12.695423603057861, 52.0
12.711616039276123, 71.0
12.72719931602478, 77.0
12.741567611694336, 85.0
12.757659912109375, 78.0
12.773404121398926, 76.0
12.789409875869751, 75.0
12.805389404296875, 75.0
12.821413040161133, 75.0
12.837618827819824, 74.0
12.853747606277466, 74.0
12.870996952056885, 69.0
12.888508081436157, 67.0
12.90651249885559, 65.0
12.924924373626709, 64.0
12.943287372589111, 63.0
12.962421655654907, 64.0
12.980698347091675, 64.0
12.998094081878662, 68.0
13.01580810546875, 66.0
13.033103466033936, 68.0
13.049976587295532, 70.0
13.066994190216064, 69.0
13.084008693695068, 69.0
13.101028680801392, 69.0
13.118645668029785, 66.0
13.134963274002075, 73.0
13.15212607383728, 68.0
13.170171737670898, 69.0
13.18695616722107, 71.0
13.203925848007202, 69.0
13.220085620880127, 74.0
13.236826181411743, 70.0
13.255562543869019, 62.0
13.271790742874146, 71.0
13.287867069244385, 74.0
13.303505420684814, 76.0
13.319667339324951, 73.0
13.335870265960693, 75.0
13.351317167282104, 77.0
13.367644309997559, 74.0
13.384074926376343, 72.0
13.400716543197632, 71.0
13.416592836380005, 77.0
13.432438135147095, 77.0
13.448620796203613, 73.0
13.464635848999023, 75.0
13.480022192001343, 78.0
13.497440576553345, 67.0
13.51321816444397, 76.0
13.529027223587036, 78.0
13.544240236282349, 79.0
13.560416460037231, 75.0
13.577177286148071, 71.0
13.591992139816284, 79.0
13.607346773147583, 78.0
13.623514175415039, 73.0
13.640606880187988, 69.0
13.656065464019775, 77.0
13.672673463821411, 77.0
13.688597440719604, 75.0
13.70566201210022, 69.0
13.725329875946045, 60.0
13.742298603057861, 70.0
13.75967288017273, 68.0
13.77673053741455, 69.0
13.793713808059692, 69.0
13.81431531906128, 55.0
13.83141565322876, 67.0
13.848195552825928, 69.0
13.864341259002686, 71.0
13.88076901435852, 69.0
13.897724628448486, 67.0
13.914448499679565, 69.0
13.931141376495361, 69.0
13.947154521942139, 72.0
13.963949918746948, 68.0
13.981725454330444, 64.0
13.998547077178955, 68.0
14.015947341918945, 65.0
14.03362226486206, 64.0
14.051057815551758, 65.0
14.068480014801025, 65.0
14.085686445236206, 66.0
14.102745532989502, 66.0
14.120144367218018, 65.0
14.138666868209839, 61.0
14.158390283584595, 57.0
14.17758297920227, 58.0
14.197453498840332, 56.0
14.217877626419067, 54.0
14.238162994384766, 55.0
14.259024143218994, 53.0
14.27931833267212, 54.0
14.300490856170654, 52.0
14.321909189224243, 52.0
14.343259334564209, 52.0
14.364208459854126, 53.0
14.385536193847656, 52.0
14.406896829605103, 51.0
14.428369522094727, 51.0
14.451876163482666, 46.0
14.472944974899292, 52.0
14.493796825408936, 53.0
14.515268325805664, 51.0
14.535974979400635, 53.0
14.557079792022705, 52.0
14.577255249023438, 55.0
14.597536087036133, 55.0
14.618117332458496, 54.0
14.637852907180786, 56.0
14.658099174499512, 56.0
14.678272724151611, 55.0
14.697867155075073, 57.0
14.71774673461914, 56.0
14.741615056991577, 46.0
14.761476993560791, 56.0
14.780554294586182, 59.0
14.79955506324768, 59.0
14.818655014038086, 59.0
14.837013244628906, 62.0
14.855364322662354, 61.0
14.873291969299316, 63.0
14.890454530715942, 66.0
14.907885789871216, 65.0
14.92507004737854, 66.0
14.941923379898071, 68.0
14.958541631698608, 69.0
14.975304126739502, 68.0
14.991828680038452, 69.0
15.008540153503418, 68.0
15.02519702911377, 69.0
15.041601657867432, 70.0
15.060168743133545, 61.0
15.076770782470703, 69.0
15.092910528182983, 71.0
15.11078143119812, 63.0
15.12749695777893, 68.0
15.143784999847412, 70.0
15.159940719604492, 71.0
15.175876140594482, 72.0
15.191660404205322, 73.0
15.207751989364624, 71.0
15.222851991653442, 77.0
15.237559080123901, 79.0
15.252535343170166, 77.0
15.267014503479004, 80.0
15.281243085861206, 82.0
15.295849800109863, 81.0
15.309751510620117, 84.0
15.323297262191772, 87.0
15.336575746536255, 89.0
15.349725246429443, 90.0
15.363037586212158, 90.0
15.37586498260498, 92.0
15.388721227645874, 93.0
15.401283502578735, 95.0
15.413774490356445, 96.0
15.425850868225098, 100.0
15.437578678131104, 103.0
15.450530290603638, 93.0
15.462473154067993, 101.0
15.473910570144653, 107.0
15.485298156738281, 108.0
15.496484756469727, 109.0
15.507365942001343, 113.0
15.518239974975586, 113.0
15.52929949760437, 111.0
15.54002833366394, 115.0
15.550960779190063, 112.0
15.562327861785889, 107.0
15.574064254760742, 104.0
15.584943056106567, 114.0
15.595481395721436, 118.0
15.606123924255371, 116.0
15.616633176803589, 118.0
15.627054214477539, 120.0
15.637524843215942, 118.0
15.647808313369751, 120.0
15.658370018005371, 117.0
15.668709993362427, 120.0
15.679139375686646, 119.0
15.689496278762817, 119.0
15.700079917907715, 118.0
15.711143493652344, 113.0
15.721814155578613, 116.0
15.732332944869995, 117.0
15.745189189910889, 92.0
15.758093357086182, 92.0
15.768797397613525, 116.0
15.779614925384521, 115.0
15.79037880897522, 115.0
15.80219554901123, 102.0
15.814304113388062, 102.0
15.825287103652954, 112.0
15.83603811264038, 114.0
15.847163915634155, 110.0
15.858617067337036, 106.0
15.869743824005127, 110.0
15.880531311035156, 115.0
15.891932487487793, 107.0
15.903281450271606, 109.0
15.913532733917236, 124.0
15.92386794090271, 121.0
15.934101819992065, 122.0
15.944297790527344, 122.0
15.95494294166565, 116.0
15.966543912887573, 104.0
15.977802753448486, 109.0
15.990246295928955, 97.0
16.001933813095093, 103.0
16.0145103931427, 95.0
16.027726411819458, 90.0
16.041250705718994, 87.0
16.055470943450928, 82.0
16.06972861289978, 82.0
16.084100008010864, 81.0
16.098438501358032, 81.0
16.113786935806274, 75.0
16.128379106521606, 80.0
16.143754482269287, 76.0
16.158501386642456, 79.0
16.17337417602539, 78.0
16.18769884109497, 81.0
16.202354669570923, 80.0
16.216970205307007, 79.0
16.232102632522583, 77.0
16.246959924697876, 78.0
16.26198697090149, 77.0
16.277202129364014, 76.0
16.29223346710205, 77.0
16.307260990142822, 77.0
16.32276749610901, 74.0
16.339582443237305, 68.0
16.35486650466919, 76.0
16.369529247283936, 79.0
16.386536598205566, 67.0
16.403757095336914, 66.0
16.42078447341919, 66.0
16.435246229171753, 81.0
16.452160358428955, 67.0
16.467225790023804, 77.0
16.482282638549805, 77.0
16.497831344604492, 74.0
16.51376748085022, 73.0
16.530839681625366, 66.0
16.546404361724854, 74.0
16.562219858169556, 73.0
16.578943729400635, 68.0
16.595459461212158, 69.0
16.611493349075317, 71.0
16.627413749694824, 72.0
16.64349126815796, 71.0
16.661170959472656, 64.0
16.676522970199585, 75.0
16.691566944122314, 77.0
16.706918239593506, 76.0
16.721626043319702, 79.0
16.735748529434204, 82.0
16.750293731689453, 80.0
16.766160011291504, 73.0
16.780893325805664, 79.0
16.79538083076477, 82.0
16.808701276779175, 89.0
16.822082042694092, 88.0
16.836421728134155, 83.0
16.85037589073181, 84.0
16.86547017097473, 77.0
16.88110661506653, 74.0
16.896286010742188, 77.0
16.910571575164795, 82.0
16.925819635391235, 76.0
16.939913034439087, 84.0
16.9546480178833, 79.0
16.969261646270752, 80.0
16.984397172927856, 77.0
16.99926733970642, 78.0
17.014852285385132, 74.0
17.029748916625977, 78.0
17.04524326324463, 75.0
17.060897827148438, 74.0
17.076544761657715, 74.0
17.091707944869995, 76.0
17.10698437690735, 75.0
17.121944665908813, 77.0
17.13749361038208, 75.0
17.15256667137146, 76.0
17.170093059539795, 64.0
17.185287952423096, 76.0
17.200973987579346, 74.0
17.216612339019775, 74.0
17.23226261138916, 73.0
17.24848246574402, 71.0
17.264036417007446, 74.0
17.279650449752808, 74.0
17.295351028442383, 74.0
17.310962677001953, 74.0
17.326443910598755, 75.0
17.34129285812378, 78.0
17.35648798942566, 76.0
17.371560096740723, 77.0
17.38669991493225, 77.0
17.402023792266846, 76.0
17.41697931289673, 78.0
17.43164610862732, 79.0
17.446069478988647, 80.0
17.460760831832886, 80.0
17.474390745162964, 86.0
17.48791217803955, 87.0
17.501346826553345, 89.0
17.514304399490356, 93.0
17.527312517166138, 91.0
17.54055404663086, 90.0
17.553581714630127, 91.0
17.56766152381897, 83.0
17.58177638053894, 84.0
17.598451852798462, 69.0
17.61245346069336, 84.0
17.62690782546997, 82.0
17.640766382217407, 85.0
17.65519142150879, 81.0
17.669822216033936, 80.0
17.68425416946411, 81.0
17.69865584373474, 81.0
17.71423053741455, 74.0
17.728941917419434, 79.0
17.743828535079956, 79.0
17.758747577667236, 78.0
17.774061679840088, 76.0
17.791803121566772, 64.0
17.80614924430847, 81.0
17.819462537765503, 89.0
17.832563161849976, 91.0
17.845784902572632, 90.0
17.859135627746582, 89.0
17.872366189956665, 90.0
17.88535213470459, 91.0
17.898793935775757, 89.0
17.911954641342163, 90.0
17.924747705459595, 93.0
17.93801975250244, 91.0
17.951116800308228, 91.0
17.964001893997192, 92.0
17.977193117141724, 90.0
17.990381002426147, 90.0
18.00360631942749, 90.0
18.01768136024475, 83.0
18.031001091003418, 89.0
18.044517278671265, 87.0
18.057682752609253, 90.0
18.071511268615723, 85.0
18.085180044174194, 87.0
18.099412441253662, 82.0
18.113664865493774, 82.0
18.127578496932983, 84.0
18.14223551750183, 80.0
18.15645718574524, 82.0
18.170690059661865, 82.0
18.18472647666931, 83.0
18.199103832244873, 81.0
18.21398162841797, 78.0
18.22853112220764, 80.0
18.24334692955017, 79.0
18.258033275604248, 79.0
18.27311944961548, 77.0
18.288119077682495, 77.0
18.302891492843628, 78.0
18.317556858062744, 80.0
18.33689522743225, 57.0
18.353788375854492, 67.0
18.370994091033936, 66.0
18.385875701904297, 80.0
18.40149712562561, 74.0
18.415648937225342, 83.0
18.429976224899292, 81.0
18.444029808044434, 84.0
18.45927381515503, 77.0
18.473363637924194, 83.0
18.48713970184326, 86.0
18.50064444541931, 87.0
18.5140643119812, 88.0
18.52774477005005, 87.0
18.540714025497437, 91.0
18.55375862121582, 91.0
18.567774057388306, 83.0
18.580833196640015, 91.0
18.593602418899536, 94.0
18.606311798095703, 94.0
18.619483947753906, 91.0
18.632464170455933, 92.0
18.645278930664062, 93.0
18.658015727996826, 94.0
18.670891761779785, 93.0
18.683587312698364, 94.0
18.696244955062866, 94.0
18.709012269973755, 94.0
18.72159171104431, 94.0
18.733943223953247, 97.0
18.746728897094727, 94.0
18.75935411453247, 96.0
18.77240538597107, 92.0
18.785094738006592, 94.0
18.800288677215576, 76.0
18.81528067588806, 77.0
18.827884674072266, 95.0
18.840476751327515, 95.0
18.853018045425415, 95.0
18.86549663543701, 96.0
18.878430366516113, 92.0
18.89140772819519, 93.0
18.904136419296265, 94.0
18.916454792022705, 98.0
18.928694009780884, 99.0
18.940463066101074, 103.0
18.952298879623413, 104.0
18.96375799179077, 106.0
18.97635531425476, 99.0
18.987666606903076, 109.0
18.99912738800049, 107.0
19.01111602783203, 102.0
19.02311944961548, 101.0
19.035554885864258, 98.0
19.048556089401245, 91.0
19.0615975856781, 91.0
19.07500386238098, 89.0
19.088178873062134, 90.0
19.101551294326782, 88.0
19.115142107009888, 87.0
19.1285617351532, 88.0
19.143006324768066, 82.0
19.157326221466064, 82.0
19.172152280807495, 78.0
19.187498807907104, 75.0
19.203511953353882, 72.0
19.22001338005066, 69.0
19.23763394355774, 65.0
19.25546884536743, 64.0
19.273328065872192, 63.0
19.290973663330078, 64.0
19.309451580047607, 61.0
19.327179193496704, 64.0
19.345211505889893, 62.0
19.363333225250244, 62.0
19.38235569000244, 59.0
19.40175175666809, 58.0
19.420865535736084, 59.0
19.438814640045166, 63.0
19.458704948425293, 56.0
19.477736234664917, 59.0
19.496641397476196, 60.0
19.514617681503296, 62.0
19.531671047210693, 67.0
19.548224210739136, 69.0
19.56359028816223, 75.0
19.579623460769653, 71.0
19.594406127929688, 79.0
19.60898184776306, 81.0
19.624109029769897, 77.0
19.637930154800415, 85.0
19.65219211578369, 83.0
19.666617155075073, 81.0
19.679155349731445, 96.0
19.691108226776123, 101.0
19.703011751174927, 102.0
19.714394330978394, 107.0
19.725794553756714, 107.0
19.736902713775635, 111.0
19.748820304870605, 102.0
19.759725093841553, 114.0
19.76994800567627, 123.0
19.78032636642456, 121.0
19.79112982749939, 115.0
19.80249547958374, 108.0
19.814225673675537, 104.0
19.82758641242981, 88.0
19.83908987045288, 106.0
19.849865436553955, 116.0
19.86130928993225, 108.0
19.873329639434814, 100.0
19.88559079170227, 98.0
19.8983051776886, 94.0
19.911247730255127, 93.0
19.924148082733154, 92.0
19.936989068984985, 93.0
19.950836420059204, 85.0
19.965016841888428, 88.0
19.97935152053833, 85.0
19.994797468185425, 78.0
20.00943350791931, 83.0
20.02501153945923, 77.0
20.040690660476685, 77.0
20.05582857131958, 80.0
20.07087779045105, 81.0
20.085617065429688, 83.0
20.10142207145691, 76.0
20.117004871368408, 77.0
20.13254404067993, 79.0
20.1474027633667, 88.0
20.16127610206604, 89.0
20.177706480026245, 72.0
20.191045999526978, 99.0
20.20495343208313, 89.0
20.216723203659058, 115.0
20.229304790496826, 101.0
20.24195408821106, 100.0
20.253602266311646, 118.0
20.26572871208191, 106.0
20.276110887527466, 120.0
20.28877353668213, 102.0
20.299336433410645, 118.0
20.311944007873535, 101.0
20.324207067489624, 110.0
20.336499452590942, 104.0
20.34842276573181, 108.0
20.360416412353516, 113.0
20.3725688457489, 105.0
20.384515047073364, 106.0
20.396419286727905, 108.0
20.407832384109497, 119.0
20.42055869102478, 103.0
20.433204889297485, 105.0
20.44406294822693, 129.0
20.45681142807007, 99.0
20.467453479766846, 118.0
20.478014707565308, 134.0
20.488462448120117, 137.0
20.499053478240967, 126.0
20.510658502578735, 112.0
20.52095317840576, 121.0
20.532644748687744, 109.0
20.543115615844727, 120.0
20.555745840072632, 101.0
20.567275047302246, 107.0
20.580423831939697, 95.0
20.593636751174927, 95.0
20.608171224594116, 84.0
20.62231183052063, 87.0
20.63807773590088, 76.0
20.6545090675354, 78.0
20.67178750038147, 68.0
20.68962812423706, 66.0
20.709308624267578, 59.0
20.727230548858643, 65.0
20.745975494384766, 62.0
20.76474952697754, 62.0
20.783931255340576, 60.0
20.80322790145874, 60.0
20.822014808654785, 62.0
20.846959590911865, 44.0
20.865224361419678, 62.0
20.883466482162476, 62.0
20.90183973312378, 61.0
20.920337200164795, 61.0
20.939300060272217, 59.0
20.958441972732544, 59.0
20.978047609329224, 57.0
20.99791431427002, 56.0
21.017240524291992, 58.0
21.036391735076904, 58.0
21.055140495300293, 60.0
21.075392246246338, 55.0
21.094021558761597, 60.0
21.11276388168335, 60.0
21.131651163101196, 59.0
21.150595903396606, 59.0
21.16899013519287, 61.0
21.187434673309326, 61.0
21.205937147140503, 61.0
21.224812746047974, 59.0
21.242705821990967, 63.0
21.26111364364624, 61.0
21.27855110168457, 65.0
21.295569896697998, 67.0
21.313603162765503, 63.0
21.33091163635254, 66.0
21.347567319869995, 69.0
21.364239931106567, 68.0
21.38031792640686, 71.0
21.396599769592285, 71.0
21.412485122680664, 72.0
21.428995370864868, 69.0
21.445549249649048, 69.0
21.462279796600342, 69.0
21.4782977104187, 72.0
21.494264364242554, 72.0
21.509693145751953, 75.0
21.525500297546387, 73.0
21.54067873954773, 77.0
21.556177377700806, 75.0
21.573007106781006, 68.0
21.58902883529663, 73.0
21.604660749435425, 74.0
21.62178111076355, 67.0
21.6371488571167, 76.0
21.652365922927856, 76.0
21.667428731918335, 78.0
21.682971477508545, 74.0
21.698432207107544, 75.0
21.71438765525818, 72.0
21.73039984703064, 73.0
21.74556064605713, 76.0
21.760761499404907, 76.0
21.776244640350342, 75.0
21.791558504104614, 76.0
21.80710458755493, 75.0
21.82219886779785, 77.0
21.83715057373047, 77.0
21.8550968170166, 63.0
21.872783184051514, 64.0
21.887743711471558, 78.0
21.90255308151245, 78.0
21.91733145713806, 79.0
21.932859182357788, 74.0
21.947819709777832, 78.0
21.96308159828186, 76.0
21.97943949699402, 70.0
21.994806051254272, 76.0
22.010307788848877, 76.0
22.02577567100525, 75.0
22.041100025177002, 76.0
22.056658029556274, 74.0
22.07198691368103, 76.0
22.08883571624756, 70.0
22.10603094100952, 72.0
22.12322211265564, 69.0
22.141271591186523, 67.0
22.159319400787354, 65.0
22.178086042404175, 64.0
22.19699263572693, 62.0
22.216336965560913, 62.0
22.23546266555786, 60.0
22.25513744354248, 61.0
22.27545404434204, 56.0
22.295032501220703, 61.0
22.315311908721924, 61.0
22.33463978767395, 62.0
22.353362321853638, 62.0
22.372908353805542, 62.0
22.39204216003418, 60.0
22.411416053771973, 62.0
22.4303195476532, 62.0
22.44881796836853, 65.0
22.467668294906616, 62.0
22.48699450492859, 63.0
22.505752325057983, 62.0
22.524033784866333, 67.0
22.541128873825073, 69.0
22.559152364730835, 67.0
22.57790470123291, 62.0
22.59715962409973, 63.0
22.61583709716797, 62.0
22.63597011566162, 59.0
22.65717363357544, 55.0
22.680184841156006, 51.0
22.702933073043823, 50.0
22.725740432739258, 51.0
22.747572898864746, 52.0
22.76926612854004, 54.0
22.78884220123291, 59.0
22.80857014656067, 60.0
22.827072381973267, 63.0
22.844631671905518, 68.0
22.86161518096924, 72.0
22.88234281539917, 57.0
22.89778208732605, 80.0
22.912587881088257, 86.0
22.927595853805542, 81.0
22.941550493240356, 92.0
22.954803466796875, 95.0
22.969486951828003, 87.0
22.982833862304688, 93.0
22.996009826660156, 99.0
23.008575677871704, 101.0
23.02102828025818, 107.0
23.033447980880737, 103.0
23.04588747024536, 106.0
23.05937957763672, 94.0
23.072972297668457, 96.0
23.085346698760986, 109.0
23.09895420074463, 95.0
23.110740661621094, 115.0
23.122123956680298, 114.0
23.13481640815735, 100.0
23.146198987960815, 113.0
23.157169342041016, 125.0
23.167625427246094, 127.0
23.18021297454834, 105.0
23.191158771514893, 126.0
23.203939199447632, 100.0
23.21527123451233, 122.0
23.227943658828735, 100.0
23.239014625549316, 121.0
23.250197887420654, 123.0
23.260716199874878, 125.0
23.27216649055481, 118.0
23.282801151275635, 125.0
23.29407048225403, 123.0
23.30496621131897, 121.0
23.316210746765137, 122.0
23.327229499816895, 118.0
23.33932328224182, 108.0
23.350916862487793, 111.0
23.36296796798706, 111.0
23.37437653541565, 113.0
23.386356830596924, 112.0
23.39804172515869, 111.0
23.410381317138672, 105.0
23.422030210494995, 110.0
23.436795949935913, 84.0
23.448412895202637, 110.0
23.462942361831665, 89.0
23.474215745925903, 113.0
23.487936973571777, 92.0
23.49947500228882, 111.0
23.51158118247986, 111.0
23.523032188415527, 113.0
23.534921407699585, 113.0
23.546027898788452, 116.0
23.558855295181274, 99.0
23.570244789123535, 112.0
23.58192205429077, 115.0
23.592706203460693, 122.0
23.603952646255493, 120.0
23.614753007888794, 121.0
23.62749457359314, 101.0
23.637980461120605, 124.0
23.649036645889282, 126.0
23.65945816040039, 126.0
23.67015767097473, 129.0
23.68269920349121, 106.0
23.693079710006714, 120.0
23.703309059143066, 130.0
23.713664054870605, 133.0
23.723989725112915, 130.0
23.735077381134033, 120.0
23.74549651145935, 130.0
23.757171869277954, 114.0
23.767728805541992, 126.0
23.779115200042725, 119.0
23.789518117904663, 129.0
23.80190944671631, 102.0
23.813141345977783, 114.0
23.824045181274414, 125.0
23.834737062454224, 122.0
23.846174478530884, 118.0
23.857751846313477, 111.0
23.869038581848145, 120.0
23.879978895187378, 119.0
23.89657735824585, 98.0
23.908201456069946, 111.0
23.920288562774658, 107.0
23.93159508705139, 115.0
23.943583726882935, 111.0
23.955891847610474, 108.0
23.968941926956177, 96.0
23.980929851531982, 107.0
23.993449449539185, 103.0
24.006462335586548, 101.0
24.019945859909058, 93.0
24.03321623802185, 99.0
24.04664921760559, 94.0
24.06073498725891, 90.0
24.07550048828125, 82.0
24.09480595588684, 63.0
24.109058141708374, 82.0
24.124714851379395, 77.0
24.1395320892334, 78.0
24.15588140487671, 74.0
24.17220973968506, 70.0
24.194602489471436, 52.0
24.21293830871582, 61.0
24.230381727218628, 70.0
24.249039888381958, 66.0
24.267756700515747, 64.0
24.28543519973755, 66.0
24.30478262901306, 62.0
24.32303810119629, 64.0
24.342458248138428, 62.0
24.361921548843384, 59.0
24.381556034088135, 61.0
24.40208077430725, 56.0
24.422313451766968, 58.0
24.44430708885193, 55.0
24.46705460548401, 51.0
24.488773584365845, 53.0
24.511581897735596, 51.0
24.53289818763733, 53.0
24.5558602809906, 50.0
24.58125400543213, 44.0
24.60340714454651, 52.0
24.62475609779358, 53.0
24.646915197372437, 53.0
24.668721914291382, 52.0
24.690301656723022, 55.0
24.711026906967163, 55.0
24.732492685317993, 55.0
24.75298810005188, 56.0
24.775184631347656, 54.0
24.796177625656128, 54.0
24.817684412002563, 55.0
24.837323904037476, 59.0
24.858434200286865, 56.0
24.87862539291382, 57.0
24.90787363052368, 38.0
24.929458141326904, 59.0
24.949135780334473, 60.0
24.968497037887573, 58.0
24.987752199172974, 60.0
25.006911993026733, 59.0
25.025826454162598, 62.0
25.04454255104065, 60.0
25.06305742263794, 65.0
25.080854654312134, 63.0
25.098150730133057, 69.0
25.114721059799194, 69.0
25.132226705551147, 68.0
25.147753953933716, 75.0
25.16454577445984, 71.0
25.179988384246826, 76.0
25.196080207824707, 75.0
25.211065769195557, 79.0
25.22581958770752, 83.0
25.2400803565979, 83.0
25.254015684127808, 89.0
25.267435789108276, 89.0
25.281033277511597, 91.0
25.294164657592773, 89.0
25.30839729309082, 86.0
25.321068048477173, 95.0
25.33522057533264, 86.0
25.34778642654419, 96.0
25.360762357711792, 95.0
25.373899698257446, 90.0
25.386792421340942, 96.0
25.399166584014893, 95.0
25.413065433502197, 88.0
25.42524814605713, 98.0
25.43781304359436, 99.0
25.452899932861328, 76.0
25.465771198272705, 96.0
25.47818946838379, 95.0
25.492103338241577, 87.0
25.50613284111023, 93.0
25.518858671188354, 98.0
25.533045291900635, 88.0
25.545761346817017, 97.0
25.558977127075195, 97.0
25.572020053863525, 95.0
25.585458755493164, 94.0
25.598206043243408, 98.0
25.611189365386963, 98.0
25.623940229415894, 98.0
25.637003660202026, 96.0
25.649739742279053, 97.0
25.66276788711548, 99.0
25.676573276519775, 95.0
25.68986201286316, 97.0
25.70223641395569, 101.0
25.714564561843872, 102.0
25.727176904678345, 99.0
25.739471435546875, 102.0
25.751619577407837, 104.0
25.763884782791138, 103.0
25.775755643844604, 107.0
25.78764271736145, 107.0
25.799573183059692, 107.0
25.811252117156982, 110.0
25.82412075996399, 98.0
25.837682485580444, 103.0
25.849015474319458, 115.0
25.860519886016846, 116.0
25.872316598892212, 114.0
25.884286880493164, 112.0
25.896456003189087, 106.0
25.909684419631958, 103.0
25.92499613761902, 84.0
25.937052011489868, 107.0
25.949490785598755, 107.0
25.96145534515381, 107.0
25.97493815422058, 97.0
25.987986087799072, 106.0
26.00129222869873, 93.0
26.015178203582764, 93.0
26.02894639968872, 93.0
26.041770935058594, 103.0
26.054195165634155, 101.0
26.066352367401123, 105.0
26.078174591064453, 108.0
26.090078592300415, 107.0
26.101855754852295, 108.0
26.11322283744812, 113.0
26.124623775482178, 112.0
26.13746190071106, 113.0
26.149229049682617, 113.0
26.160833835601807, 116.0
26.171735048294067, 120.0
26.183408498764038, 109.0
26.196682929992676, 93.0
26.20744228363037, 121.0
26.218348264694214, 119.0
26.22903084754944, 124.0
26.239623546600342, 124.0
26.250296592712402, 123.0
26.26093101501465, 124.0
26.273300170898438, 116.0
26.284682512283325, 113.0
26.296452283859253, 117.0
26.30973744392395, 98.0
26.32194209098816, 98.0
26.333191871643066, 114.0
26.34540629386902, 104.0
26.358922481536865, 96.0
26.371358394622803, 108.0
26.384993076324463, 96.0
26.399253368377686, 86.0
26.41196036338806, 95.0
26.426313877105713, 86.0
26.441466331481934, 82.0
26.45743751525879, 74.0
26.47118592262268, 94.0
26.485186100006104, 88.0
26.498603105545044, 99.0
26.511176347732544, 105.0
26.52344512939453, 109.0
26.534961462020874, 119.0
26.5465886592865, 118.0
26.558284044265747, 110.0
26.57029628753662, 113.0
26.584270238876343, 91.0
26.597565412521362, 102.0
26.61279821395874, 80.0
26.62556791305542, 98.0
26.638680934906006, 99.0
26.651764392852783, 102.0
26.664695739746094, 103.0
26.677491664886475, 103.0
26.690938472747803, 92.0
26.704179763793945, 98.0
26.71859836578369, 85.0
26.732775926589966, 90.0
26.747628688812256, 83.0
26.761646032333374, 91.0
26.77612829208374, 87.0
26.790815830230713, 87.0
26.804068565368652, 99.0
26.817945957183838, 92.0
26.830944299697876, 94.0
26.8431236743927, 108.0
26.855406999588013, 103.0
26.86734652519226, 112.0
26.8793363571167, 106.0
26.892940521240234, 95.0
26.90536856651306, 105.0
26.91749596595764, 106.0
26.931374073028564, 88.0
26.945733547210693, 88.0
26.958009004592896, 109.0
26.970314502716064, 109.0
26.982260704040527, 107.0
26.99417519569397, 113.0
27.007616758346558, 100.0
27.01856756210327, 119.0
27.030207872390747, 111.0
27.0439293384552, 94.0
27.05760431289673, 93.0
27.069937229156494, 97.0
27.08174157142639, 114.0
27.096331357955933, 86.0
27.108300924301147, 111.0
27.120725631713867, 106.0
27.132411003112793, 111.0
27.144373416900635, 109.0
27.15634822845459, 108.0
27.16834545135498, 107.0
27.180481433868408, 105.0
27.193677186965942, 95.0
27.207950830459595, 90.0
27.220918655395508, 106.0
27.233463287353516, 101.0
27.24539065361023, 108.0
27.257448196411133, 106.0
27.270450353622437, 97.0
27.282541036605835, 106.0
27.29593563079834, 93.0
27.30847144126892, 105.0
27.32142972946167, 97.0
27.33342146873474, 107.0
27.34536910057068, 107.0
27.358935356140137, 93.0
27.37134027481079, 107.0
27.383630990982056, 104.0
27.397941827774048, 88.0
27.411945819854736, 88.0
27.42536687850952, 96.0
27.438838720321655, 93.0
27.453858375549316, 80.0
27.46811842918396, 86.0
27.48227596282959, 87.0
27.49566626548767, 93.0
27.508749961853027, 95.0
27.52294921875, 88.0
27.536948919296265, 86.0
27.550743341445923, 94.0
27.563628911972046, 97.0
27.577938079833984, 88.0
27.5918927192688, 91.0
27.6076340675354, 79.0
27.62066626548767, 96.0
27.634907722473145, 92.0
27.649117708206177, 86.0
27.663860082626343, 83.0
27.678162813186646, 85.0
27.693132400512695, 83.0
27.706880807876587, 89.0
27.720131635665894, 93.0
27.73394799232483, 89.0
27.746533155441284, 99.0
27.759135484695435, 104.0
27.771444082260132, 104.0
27.783755779266357, 107.0
27.7961323261261, 107.0
27.808492422103882, 104.0
27.820727109909058, 108.0
27.833468198776245, 107.0
27.846506357192993, 102.0
27.85910391807556, 104.0
27.87194013595581, 98.0
27.884936809539795, 95.0
27.89681339263916, 111.0
27.909937858581543, 97.0
27.921513080596924, 110.0
27.933429956436157, 111.0
27.94613790512085, 102.0
27.96070432662964, 92.0
27.97253918647766, 112.0
27.984045267105103, 115.0
27.99744176864624, 94.0
28.00895047187805, 114.0
28.020416975021362, 116.0
28.03149938583374, 120.0
28.042428731918335, 122.0
28.053781509399414, 118.0
28.06525421142578, 116.0
28.075982332229614, 127.0
28.087279319763184, 116.0
28.098113536834717, 126.0
28.10867214202881, 129.0
28.119048357009888, 132.0
28.130320072174072, 123.0
28.140926837921143, 130.0
28.151688814163208, 130.0
28.163225412368774, 117.0
28.17424178123474, 125.0
28.18545699119568, 123.0
28.197121620178223, 117.0
28.209010124206543, 113.0
28.22157883644104, 102.0
28.234952688217163, 97.0
28.24894070625305, 88.0
28.26168966293335, 104.0
28.27467632293701, 98.0
28.287827968597412, 95.0
28.302393198013306, 92.0
28.31730580329895, 81.0
28.332432508468628, 82.0
28.348087310791016, 76.0
28.364685773849487, 71.0
28.380268096923828, 77.0
28.396331071853638, 74.0
28.411540031433105, 80.0
28.42494034767151, 92.0
28.437931060791016, 95.0
28.44917345046997, 119.0
28.461748600006104, 101.0
28.47214698791504, 120.0
28.483112812042236, 120.0
28.494925022125244, 109.0
28.505019187927246, 127.0
28.51649808883667, 113.0
28.5274600982666, 111.0
28.538532495498657, 111.0
28.548020839691162, 136.0
28.55731511116028, 135.0
28.568635940551758, 117.0
28.577945947647095, 142.0
28.588956356048584, 120.0
28.598110914230347, 138.0
28.609283208847046, 118.0
28.618343114852905, 151.0
28.629324913024902, 120.0
28.638566255569458, 146.0
28.649773836135864, 119.0
28.659176111221313, 154.0
28.668712854385376, 153.0
28.677769660949707, 152.0
28.68800711631775, 136.0
28.69706964492798, 142.0
28.706425189971924, 154.0
28.715089082717896, 147.0
28.72498345375061, 138.0
28.73337697982788, 152.0
28.742536306381226, 157.0
28.75111436843872, 151.0
28.760404348373413, 156.0
28.768781661987305, 156.0
28.77967667579651, 124.0
28.788135290145874, 157.0
28.79736876487732, 158.0
28.80609130859375, 150.0
28.815111875534058, 161.0
28.82342219352722, 158.0
28.835919857025146, 109.0
28.846179723739624, 121.0
28.85801386833191, 121.0
28.868893146514893, 119.0
28.879083156585693, 156.0
28.887686729431152, 149.0
28.897467851638794, 149.0
28.90595507621765, 155.0
28.916011095046997, 137.0
28.924668550491333, 151.0
28.9339017868042, 158.0
28.942323923110962, 153.0
28.951536178588867, 159.0
28.960071086883545, 152.0
28.972460508346558, 123.0
28.98492193222046, 132.0
28.995381593704224, 125.0
29.003803730010986, 163.0
29.014551401138306, 126.0
29.022801160812378, 163.0
29.03160333633423, 165.0
29.040212869644165, 153.0
29.04888129234314, 167.0
29.056870698928833, 164.0
29.06597089767456, 151.0
29.07472825050354, 147.0
29.084273099899292, 150.0
29.092503309249878, 161.0
29.101094245910645, 168.0
29.109026193618774, 168.0
29.11768341064453, 169.0
29.12561821937561, 168.0
29.134330987930298, 168.0
29.142142295837402, 168.0
