0.8178815841674805, 291.0
0.8460578918457031, 301.0
0.871910572052002, 306.0
0.8979358673095703, 290.0
0.9228641986846924, 291.0
0.9484882354736328, 294.0
0.9733359813690186, 276.0
0.9993743896484375, 309.0
1.0247392654418945, 293.0
1.050851583480835, 276.0
1.0772063732147217, 309.0
1.1068675518035889, 292.0
1.1326572895050049, 287.0
1.1589324474334717, 307.0
1.1847429275512695, 278.0
1.2107017040252686, 291.0
1.23795485496521, 273.0
1.2636182308197021, 279.0
1.2887816429138184, 279.0
1.3144383430480957, 285.0
1.3403701782226562, 295.0
1.3659312725067139, 291.0
1.3919827938079834, 294.0
1.4222230911254883, 288.0
1.451171636581421, 297.0
1.4768080711364746, 283.0
1.5022308826446533, 282.0
1.5330464839935303, 278.0
1.5584850311279297, 274.0
1.5834760665893555, 282.0
1.608600378036499, 286.0
1.6363928318023682, 263.0
1.6609058380126953, 270.0
1.6870770454406738, 271.0
1.711360216140747, 277.0
1.7363884449005127, 264.0
1.7610208988189697, 268.0
1.786219835281372, 274.0
1.8107562065124512, 265.0
1.8366775512695312, 278.0
1.8604626655578613, 265.0
1.8848698139190674, 264.0
1.9084665775299072, 267.0
1.933431625366211, 279.0
1.9577457904815674, 259.0
1.9820291996002197, 261.0
2.006227493286133, 256.0
2.0306174755096436, 265.0
2.054363489151001, 271.0
2.0787744522094727, 250.0
2.1020402908325195, 266.0
2.1294162273406982, 259.0
2.1556966304779053, 259.0
2.1802499294281006, 267.0
2.2039482593536377, 255.0
2.230156660079956, 253.0
2.254047155380249, 258.0
2.2784061431884766, 250.0
2.301804542541504, 249.0
2.3261139392852783, 254.0
2.349752187728882, 253.0
2.3727221488952637, 248.0
2.3962950706481934, 262.0
2.420464277267456, 260.0
2.4437758922576904, 249.0
2.466705322265625, 240.0
2.490255832672119, 248.0
2.5130274295806885, 241.0
2.5401906967163086, 248.0
2.5644705295562744, 245.0
2.587221622467041, 236.0
2.6105527877807617, 235.0
2.6338844299316406, 243.0
2.656524896621704, 234.0
2.6794800758361816, 219.0
2.702747344970703, 228.0
2.7250239849090576, 217.0
2.7466368675231934, 213.0
2.7688779830932617, 220.0
2.7905709743499756, 225.0
2.8125622272491455, 223.0
2.834118604660034, 221.0
2.856801986694336, 219.0
2.8798532485961914, 216.0
2.9034600257873535, 229.0
2.9256181716918945, 218.0
2.9501543045043945, 220.0
2.971369743347168, 225.0
2.9932656288146973, 209.0
3.014522075653076, 216.0
3.037069320678711, 212.0
3.059002161026001, 211.0
3.0819809436798096, 194.0
3.1020705699920654, 200.0
3.123208999633789, 195.0
3.14443302154541, 187.0
3.1650619506835938, 195.0
3.185300827026367, 201.0
3.2061712741851807, 195.0
3.22651743888855, 203.0
3.247297525405884, 213.0
3.2674477100372314, 209.0
3.288740396499634, 205.0
3.309098958969116, 203.0
3.330657958984375, 211.0
3.3517305850982666, 224.0
3.3730289936065674, 217.0
3.394273281097412, 206.0
3.4149651527404785, 215.0
3.4361016750335693, 219.0
3.4583466053009033, 222.0
3.479292154312134, 215.0
3.5012242794036865, 237.0
3.5214641094207764, 231.0
3.543739080429077, 227.0
3.568782091140747, 252.0
3.590252161026001, 244.0
3.6105854511260986, 223.0
3.6354238986968994, 237.0
3.6566202640533447, 238.0
3.678152084350586, 247.0
3.7001497745513916, 250.0
3.720778703689575, 240.0
3.7426812648773193, 246.0
3.7654099464416504, 272.0
3.7877495288848877, 274.0
3.810378313064575, 269.0
3.832421064376831, 257.0
3.8541042804718018, 265.0
3.877153158187866, 263.0
3.8988776206970215, 256.0
3.9224443435668945, 259.0
3.945650339126587, 271.0
3.9685404300689697, 262.0
3.9906535148620605, 267.0
4.0139524936676025, 277.0
4.036566495895386, 283.0
4.059718370437622, 287.0
4.084445238113403, 287.0
4.108893394470215, 309.0
4.132354021072388, 292.0
4.155893564224243, 295.0
4.178837299346924, 287.0
4.203315496444702, 310.0
4.226759672164917, 291.0
4.249564170837402, 282.0
4.276966571807861, 288.0
4.30029296875, 289.0
4.323184967041016, 283.0
4.346465587615967, 290.0
4.368568181991577, 283.0
4.3917529582977295, 287.0
4.414503812789917, 293.0
4.4369237422943115, 275.0
4.460490942001343, 273.0
4.483876943588257, 272.0
4.506319284439087, 276.0
4.528991222381592, 275.0
4.551774501800537, 275.0
4.580216884613037, 278.0
4.602224826812744, 268.0
4.624193906784058, 290.0
4.646615505218506, 289.0
4.668332815170288, 285.0
4.6905457973480225, 291.0
4.7133870124816895, 281.0
4.734786033630371, 289.0
4.756638526916504, 265.0
4.778553247451782, 283.0
4.799128770828247, 264.0
4.819972276687622, 259.0
4.840662956237793, 268.0
4.8617613315582275, 263.0
4.881519794464111, 264.0
4.901721477508545, 265.0
4.921208381652832, 228.0
4.941597938537598, 258.0
4.9614417552948, 250.0
4.981068134307861, 239.0
5.001281976699829, 235.0
5.020796060562134, 237.0
5.039914846420288, 244.0
5.059586524963379, 241.0
5.078722238540649, 232.0
5.098053932189941, 247.0
5.116615056991577, 247.0
5.138464689254761, 249.0
5.157599449157715, 233.0
5.177095651626587, 237.0
5.195870876312256, 248.0
5.2148215770721436, 237.0
5.233771562576294, 231.0
5.252528429031372, 235.0
5.270537376403809, 226.0
5.289751768112183, 240.0
5.307966709136963, 225.0
5.326131582260132, 239.0
5.344059467315674, 237.0
5.362151861190796, 231.0
5.379946231842041, 249.0
5.397855281829834, 223.0
5.4160315990448, 249.0
5.4347569942474365, 259.0
5.4558141231536865, 248.0
5.474635124206543, 246.0
5.493449926376343, 258.0
5.512311935424805, 237.0
5.531516790390015, 254.0
5.552037239074707, 259.0
5.574942111968994, 253.0
5.599714994430542, 259.0
5.620461940765381, 275.0
5.640809059143066, 274.0
5.660996198654175, 253.0
5.68060564994812, 253.0
5.700414180755615, 249.0
5.71954607963562, 255.0
5.737445831298828, 240.0
5.755643129348755, 234.0
5.7730278968811035, 217.0
5.79106593132019, 210.0
5.808319091796875, 210.0
5.825183391571045, 199.0
5.841269254684448, 182.0
5.858428716659546, 180.0
5.875297784805298, 180.0
5.892421245574951, 167.0
5.9087419509887695, 154.0
5.924404859542847, 155.0
5.939751386642456, 155.0
5.955573797225952, 142.0
5.9702112674713135, 133.0
5.985477447509766, 128.0
6.000628709793091, 124.0
6.0157248973846436, 122.0
6.0298216342926025, 122.0
6.04616641998291, 124.0
6.060159921646118, 119.0
6.075085639953613, 128.0
6.089820384979248, 125.0
6.104215621948242, 127.0
6.118046283721924, 128.0
6.132216215133667, 133.0
6.145965576171875, 124.0
6.160006284713745, 127.0
6.17379093170166, 131.0
6.1890716552734375, 129.0
6.202965497970581, 143.0
6.217635631561279, 132.0
6.233619213104248, 146.0
6.248266220092773, 137.0
6.263298273086548, 136.0
6.278913259506226, 140.0
6.293560743331909, 134.0
6.309261322021484, 147.0
6.325305223464966, 145.0
6.3411829471588135, 149.0
6.357295751571655, 128.0
6.373190879821777, 131.0
6.3894171714782715, 135.0
6.40636420249939, 138.0
6.422492027282715, 147.0
6.440113067626953, 151.0
6.458928346633911, 149.0
6.475642919540405, 159.0
6.492000341415405, 169.0
6.5085272789001465, 167.0
6.525589942932129, 172.0
6.541890859603882, 181.0
6.558344125747681, 164.0
6.574263095855713, 181.0
6.590379238128662, 178.0
6.610429525375366, 183.0
6.626740217208862, 186.0
6.642791032791138, 196.0
6.660660982131958, 192.0
6.677664041519165, 183.0
6.693653345108032, 184.0
6.709397554397583, 187.0
6.725145101547241, 172.0
6.741445779800415, 171.0
6.756928443908691, 176.0
6.772106170654297, 179.0
6.787896394729614, 173.0
6.804074764251709, 189.0
6.819936752319336, 171.0
6.834961414337158, 176.0
6.850987672805786, 176.0
6.866081953048706, 189.0
6.880916118621826, 176.0
6.8971288204193115, 175.0
6.913283824920654, 186.0
6.929405927658081, 195.0
6.945164203643799, 172.0
6.961110353469849, 180.0
6.97723388671875, 185.0
6.992957830429077, 171.0
7.007878303527832, 173.0
7.023247241973877, 188.0
7.0390355587005615, 185.0
7.054431200027466, 195.0
7.069891452789307, 186.0
7.085068225860596, 183.0
7.099650144577026, 178.0
7.114898443222046, 195.0
7.129657745361328, 172.0
7.144577264785767, 175.0
7.160077095031738, 159.0
7.1748878955841064, 167.0
7.189759731292725, 177.0
7.204329967498779, 172.0
7.221058368682861, 171.0
7.239073276519775, 175.0
7.254611253738403, 162.0
7.270282983779907, 157.0
7.2849040031433105, 162.0
7.299647808074951, 152.0
7.314603328704834, 149.0
7.329645872116089, 146.0
7.349780321121216, 149.0
7.36928653717041, 148.0
7.383058071136475, 139.0
7.396506309509277, 137.0
7.411539316177368, 149.0
7.425361394882202, 155.0
7.438883304595947, 139.0
7.453942775726318, 132.0
7.468027114868164, 146.0
7.48118257522583, 132.0
7.4941565990448, 135.0
7.507505416870117, 141.0
7.5212156772613525, 122.0
7.535022497177124, 136.0
7.549817323684692, 145.0
7.564330339431763, 140.0
7.5794148445129395, 136.0
7.593547821044922, 136.0
7.612977981567383, 138.0
7.6286821365356445, 135.0
7.644399166107178, 146.0
7.659017324447632, 131.0
7.673306226730347, 139.0
7.687618017196655, 134.0
7.7016026973724365, 126.0
7.715922594070435, 139.0
7.729985475540161, 134.0
7.745861053466797, 140.0
7.759427785873413, 133.0
7.773318767547607, 132.0
7.787429571151733, 132.0
7.801142930984497, 120.0
7.815330266952515, 126.0
7.829293966293335, 125.0
7.843410491943359, 132.0
7.857308864593506, 114.0
7.871110916137695, 125.0
7.885330677032471, 131.0
7.899363040924072, 132.0
7.916830539703369, 138.0
7.9366936683654785, 128.0
7.953357934951782, 141.0
7.96772837638855, 129.0
7.983299970626831, 130.0
7.997649192810059, 122.0
8.011656999588013, 137.0
8.026944398880005, 137.0
8.041344165802002, 136.0
8.057581186294556, 132.0
8.071838140487671, 144.0
8.086307764053345, 135.0
8.101100444793701, 139.0
8.116212844848633, 145.0
8.130965948104858, 153.0
8.148376226425171, 156.0
8.162468433380127, 143.0
8.176683902740479, 147.0
8.19066047668457, 136.0
8.206671714782715, 127.0
8.220407009124756, 119.0
8.234389543533325, 118.0
8.24851942062378, 119.0
8.262231588363647, 115.0
8.274937868118286, 112.0
8.288208246231079, 121.0
8.301368236541748, 109.0
8.31392502784729, 111.0
8.32733702659607, 106.0
8.340504169464111, 116.0
8.354097366333008, 104.0
8.367031812667847, 100.0
8.37969422340393, 110.0
8.393071413040161, 93.0
8.406177759170532, 96.0
8.418761730194092, 97.0
8.431443214416504, 96.0
8.444960355758667, 90.0
8.46016263961792, 85.0
8.471879243850708, 86.0
8.484277248382568, 91.0
8.496803283691406, 91.0
8.509088516235352, 84.0
8.521578550338745, 97.0
8.534194946289062, 89.0
8.546362161636353, 87.0
8.559636116027832, 87.0
8.5729238986969, 89.0
8.585923671722412, 102.0
8.598591327667236, 101.0
8.611367225646973, 101.0
8.625149965286255, 92.0
8.63978099822998, 102.0
8.652329206466675, 100.0
8.665006637573242, 99.0
8.677294254302979, 87.0
8.689552307128906, 89.0
8.70163369178772, 89.0
8.713938474655151, 83.0
8.726925134658813, 91.0
8.739198207855225, 89.0
8.751623630523682, 85.0
8.764188528060913, 83.0
8.776674509048462, 87.0
8.79019021987915, 92.0
8.80231237411499, 90.0
8.815177917480469, 88.0
8.827655792236328, 97.0
8.84096384048462, 92.0
8.853729724884033, 102.0
8.86661410331726, 100.0
8.879237174987793, 118.0
8.892070531845093, 124.0
8.906132221221924, 122.0
8.919373989105225, 129.0
8.932692289352417, 118.0
8.945811748504639, 133.0
8.959372282028198, 138.0
8.973097085952759, 146.0
8.987516164779663, 159.0
9.000963926315308, 150.0
9.015740871429443, 157.0
9.030086994171143, 155.0
9.046821355819702, 169.0
9.061545848846436, 167.0
9.076686143875122, 178.0
9.091322422027588, 188.0
9.10622501373291, 190.0
9.122069120407104, 204.0
9.138028383255005, 216.0
9.154322385787964, 221.0
9.170915126800537, 227.0
9.18807339668274, 247.0
9.205470323562622, 247.0
9.222779989242554, 240.0
9.241249084472656, 275.0
9.260188579559326, 282.0
9.280229091644287, 291.0
9.299727439880371, 278.0
9.319312334060669, 293.0
9.338896036148071, 288.0
9.358936786651611, 316.0
9.380388498306274, 309.0
9.400619745254517, 310.0
9.42170786857605, 297.0
9.442416191101074, 262.0
9.462146759033203, 257.0
9.479676723480225, 238.0
9.498136520385742, 253.0
9.516637563705444, 236.0
9.535243511199951, 245.0
9.554632663726807, 221.0
9.573582649230957, 232.0
9.592596530914307, 236.0
9.611762762069702, 238.0
9.630992889404297, 245.0
9.654927253723145, 260.0
9.675494909286499, 278.0
9.696927070617676, 279.0
9.71773362159729, 283.0
9.738110542297363, 261.0
9.759816408157349, 272.0
9.78150486946106, 270.0
9.802631378173828, 271.0
9.82373595237732, 280.0
9.844765186309814, 269.0
9.86612844467163, 289.0
9.887151956558228, 282.0
9.908893346786499, 292.0
9.929805278778076, 283.0
9.950424194335938, 278.0
9.97110366821289, 293.0
9.992012023925781, 278.0
10.013309001922607, 284.0
10.034151792526245, 298.0
10.054989576339722, 289.0
10.075072526931763, 289.0
10.09476900100708, 276.0
10.11408019065857, 263.0
10.132906198501587, 248.0
10.15219235420227, 262.0
10.171346664428711, 248.0
10.190767288208008, 247.0
10.210622787475586, 249.0
10.229798078536987, 239.0
10.253239870071411, 240.0
10.27373719215393, 248.0
10.29437804222107, 238.0
10.314890623092651, 240.0
10.335365772247314, 239.0
10.356170654296875, 250.0
10.37719178199768, 256.0
10.39851975440979, 261.0
10.419662952423096, 270.0
10.441254615783691, 285.0
10.46331524848938, 265.0
10.484288692474365, 251.0
10.505169153213501, 257.0
10.525156021118164, 241.0
10.544145584106445, 209.0
10.563551902770996, 218.0
10.582391023635864, 226.0
10.600154638290405, 199.0
10.617485284805298, 194.0
10.634368181228638, 173.0
10.651763200759888, 177.0
10.670104742050171, 171.0
10.685981750488281, 173.0
10.70068883895874, 154.0
10.715463638305664, 158.0
10.729309320449829, 148.0
10.742741107940674, 137.0
10.75717306137085, 137.0
10.770581007003784, 136.0
10.785506248474121, 151.0
10.798272848129272, 138.0
10.811017274856567, 156.0
10.823620557785034, 145.0
10.836255550384521, 154.0
10.848992109298706, 147.0
10.861910581588745, 162.0
10.875200271606445, 157.0
10.887434720993042, 157.0
10.900669813156128, 163.0
10.913093328475952, 165.0
10.925591468811035, 174.0
10.938206195831299, 175.0
10.950805425643921, 172.0
10.96375060081482, 180.0
10.976654529571533, 184.0
10.989601850509644, 176.0
11.002309560775757, 173.0
11.015168905258179, 182.0
11.02875304222107, 177.0
11.041673183441162, 175.0
11.054964065551758, 172.0
11.068161725997925, 177.0
11.081340789794922, 174.0
11.09485411643982, 169.0
11.108307838439941, 183.0
11.121882438659668, 190.0
11.135305404663086, 192.0
11.149960279464722, 207.0
11.164411544799805, 206.0
11.178588628768921, 188.0
11.194162368774414, 210.0
11.209299325942993, 201.0
11.223615169525146, 210.0
11.237800359725952, 210.0
11.252765655517578, 215.0
11.267829656600952, 216.0
11.282979965209961, 231.0
11.298033475875854, 224.0
11.313534259796143, 234.0
11.32921028137207, 221.0
11.344689846038818, 218.0
11.36094045639038, 237.0
11.377945899963379, 235.0
11.394236326217651, 236.0
11.41065263748169, 225.0
11.42781400680542, 230.0
11.444127321243286, 240.0
11.461195945739746, 234.0
11.477836847305298, 244.0
11.494814395904541, 240.0
11.511228561401367, 232.0
11.527511596679688, 237.0
11.543967723846436, 239.0
11.561302661895752, 250.0
11.578404426574707, 230.0
11.594780921936035, 249.0
11.611480712890625, 251.0
11.627485752105713, 231.0
11.643360376358032, 233.0
11.65894627571106, 215.0
11.681408882141113, 227.0
11.697670459747314, 214.0
11.71258282661438, 197.0
11.728066682815552, 210.0
11.743628978729248, 221.0
11.75934362411499, 225.0
11.775581121444702, 219.0
11.792440176010132, 240.0
11.808481931686401, 226.0
11.824820280075073, 240.0
11.841935157775879, 251.0
11.859344244003296, 249.0
11.875902652740479, 238.0
11.89268708229065, 252.0
11.909295558929443, 244.0
11.925852298736572, 248.0
11.942574501037598, 246.0
11.959643363952637, 256.0
11.977574586868286, 262.0
11.99428391456604, 255.0
12.011521100997925, 267.0
12.028320550918579, 248.0
12.045457363128662, 261.0
12.064126014709473, 262.0
12.082787990570068, 249.0
12.099024295806885, 228.0
12.115241289138794, 229.0
12.131649255752563, 236.0
12.14997410774231, 225.0
12.165273904800415, 210.0
12.181889295578003, 223.0
12.197489023208618, 223.0
12.212991714477539, 215.0
12.22861933708191, 216.0
12.243835687637329, 205.0
12.259235143661499, 208.0
12.275087594985962, 229.0
12.290462017059326, 221.0
12.306231021881104, 225.0
12.323179006576538, 231.0
12.339540481567383, 236.0
12.356056213378906, 240.0
12.372674226760864, 238.0
12.388723373413086, 239.0
12.404829740524292, 241.0
12.421799898147583, 237.0
12.437840700149536, 230.0
12.455516576766968, 219.0
12.472939729690552, 231.0
12.48897671699524, 225.0
12.50528597831726, 234.0
12.521240949630737, 230.0
12.53708553314209, 232.0
12.552521228790283, 228.0
12.56829047203064, 204.0
12.583755016326904, 218.0
12.59866189956665, 208.0
12.613987922668457, 219.0
12.628852844238281, 203.0
12.64387822151184, 208.0
12.659321308135986, 218.0
12.674394845962524, 204.0
12.695392608642578, 208.0
12.711597681045532, 189.0
12.727181673049927, 185.0
12.74155044555664, 174.0
12.757645606994629, 190.0
12.77338695526123, 202.0
12.789390802383423, 195.0
12.80537223815918, 195.0
12.821394920349121, 195.0
12.837602138519287, 236.0
12.853733777999878, 233.0
12.870978355407715, 228.0
12.888489723205566, 250.0
12.906494379043579, 257.0
12.924905061721802, 286.0
12.94326901435852, 287.0
12.962404251098633, 302.0
12.980679273605347, 292.0
12.998075485229492, 276.0
13.015790700912476, 288.0
13.03308653831482, 281.0
13.049959897994995, 268.0
13.06697702407837, 285.0
13.083991289138794, 271.0
13.101011037826538, 269.0
13.118628025054932, 274.0
13.1349458694458, 266.0
13.152109622955322, 289.0
13.170154094696045, 275.0
13.1869375705719, 271.0
13.20390796661377, 258.0
13.220068454742432, 260.0
13.23680853843689, 255.0
13.255544424057007, 244.0
13.271772623062134, 259.0
13.287841320037842, 246.0
13.303486824035645, 240.0
13.319649457931519, 243.0
13.335853815078735, 258.0
13.351299047470093, 247.0
13.367626667022705, 254.0
13.384057521820068, 267.0
13.400698184967041, 246.0
13.41657567024231, 245.0
13.432421207427979, 239.0
13.448606014251709, 243.0
13.464618444442749, 236.0
13.480004787445068, 237.0
13.497421264648438, 240.0
13.513200283050537, 218.0
13.529008626937866, 228.0
13.544221639633179, 215.0
13.56039834022522, 218.0
13.57716155052185, 223.0
13.591974973678589, 219.0
13.607328414916992, 226.0
13.623496055603027, 215.0
13.64049482345581, 231.0
13.656047344207764, 226.0
13.672654390335083, 231.0
13.688579559326172, 226.0
13.7056405544281, 242.0
13.725310802459717, 219.0
13.742280960083008, 236.0
13.759655475616455, 232.0
13.77671194076538, 236.0
13.79369592666626, 232.0
13.814295530319214, 241.0
13.831398725509644, 243.0
13.848176956176758, 232.0
13.864323377609253, 242.0
13.880751609802246, 261.0
13.897705078125, 236.0
13.914429903030396, 244.0
13.931122541427612, 241.0
13.947136878967285, 227.0
13.963931560516357, 236.0
13.98170781135559, 246.0
13.998528242111206, 252.0
14.015927076339722, 246.0
14.033603429794312, 253.0
14.051044464111328, 264.0
14.068463325500488, 239.0
14.085669755935669, 243.0
14.102725267410278, 238.0
14.120126008987427, 249.0
14.138649702072144, 279.0
14.158372402191162, 255.0
14.177566528320312, 274.0
14.197434425354004, 295.0
14.217859268188477, 295.0
14.238145112991333, 301.0
14.259010791778564, 295.0
14.279301643371582, 273.0
14.3004732131958, 308.0
14.321890830993652, 296.0
14.343242645263672, 279.0
14.364191055297852, 288.0
14.385517358779907, 290.0
14.406880140304565, 308.0
14.428349256515503, 301.0
14.451865196228027, 299.0
14.472926616668701, 309.0
14.493778944015503, 293.0
14.51525092124939, 280.0
14.535954475402832, 278.0
14.557063579559326, 282.0
14.577238321304321, 264.0
14.597517490386963, 286.0
14.61809778213501, 286.0
14.637826204299927, 266.0
14.658082962036133, 270.0
14.678254127502441, 271.0
14.697839498519897, 279.0
14.717726945877075, 272.0
14.741591691970825, 257.0
14.76145076751709, 254.0
14.780536413192749, 251.0
14.799537420272827, 263.0
14.818636894226074, 268.0
14.836995840072632, 255.0
14.855350494384766, 258.0
14.873273849487305, 256.0
14.89043641090393, 243.0
14.90786862373352, 245.0
14.925052165985107, 251.0
14.941905736923218, 251.0
14.95852518081665, 240.0
14.975286722183228, 236.0
14.991809606552124, 239.0
15.00852370262146, 241.0
15.025177717208862, 248.0
15.041583061218262, 233.0
15.060153484344482, 244.0
15.076751947402954, 251.0
15.092891693115234, 236.0
15.110761404037476, 246.0
15.127478122711182, 249.0
15.143766641616821, 247.0
15.159920692443848, 242.0
15.175859212875366, 230.0
15.19164228439331, 239.0
15.207732677459717, 241.0
15.222825765609741, 226.0
15.237542152404785, 209.0
15.25252079963684, 219.0
15.266997814178467, 209.0
15.281225681304932, 203.0
15.295824527740479, 188.0
15.309735536575317, 194.0
15.323280811309814, 182.0
15.33655858039856, 171.0
15.349708080291748, 171.0
15.363020420074463, 170.0
15.375839710235596, 163.0
15.388703107833862, 164.0
15.40126633644104, 161.0
15.413756847381592, 141.0
15.42582631111145, 138.0
15.437559366226196, 139.0
15.450516700744629, 136.0
15.462454080581665, 136.0
15.473894357681274, 123.0
15.48528003692627, 119.0
15.49646782875061, 122.0
15.507349729537964, 113.0
15.518223524093628, 113.0
15.5292809009552, 122.0
15.540010929107666, 114.0
15.550947427749634, 113.0
15.562308311462402, 108.0
15.574047803878784, 111.0
15.584924459457397, 107.0
15.595462799072266, 113.0
15.606106519699097, 110.0
15.616617202758789, 109.0
15.627037048339844, 101.0
15.637509107589722, 107.0
15.647791624069214, 107.0
15.658356189727783, 115.0
15.668694257736206, 115.0
15.67912244796753, 111.0
15.68947958946228, 114.0
15.700063467025757, 115.0
15.71112585067749, 114.0
15.72179627418518, 123.0
15.732316255569458, 125.0
15.745167970657349, 128.0
15.758075714111328, 113.0
15.768779993057251, 123.0
15.779597043991089, 115.0
15.790363073348999, 121.0
15.802178382873535, 123.0
15.814287424087524, 124.0
15.825270891189575, 128.0
15.836021900177002, 122.0
15.847148656845093, 117.0
15.858600378036499, 120.0
15.86972713470459, 130.0
15.880514144897461, 113.0
15.891915321350098, 92.0
15.90326452255249, 82.0
15.913517951965332, 76.0
15.923840999603271, 70.0
15.934085369110107, 70.0
15.944282531738281, 70.0
15.95492672920227, 80.0
15.966529130935669, 76.0
15.977786540985107, 84.0
15.990231037139893, 91.0
16.00191617012024, 107.0
16.014493942260742, 141.0
16.027708530426025, 143.0
16.041232585906982, 166.0
16.055452585220337, 195.0
16.069711208343506, 191.0
16.084081649780273, 200.0
16.098421096801758, 209.0
16.113768339157104, 207.0
16.128361225128174, 197.0
16.143736362457275, 213.0
16.158483028411865, 208.0
16.17335534095764, 208.0
16.187681674957275, 205.0
16.202336311340332, 203.0
16.21695375442505, 210.0
16.232085466384888, 226.0
16.246941804885864, 205.0
16.26197338104248, 216.0
16.277186393737793, 204.0
16.292216300964355, 220.0
16.30724334716797, 221.0
16.322749853134155, 225.0
16.339565992355347, 224.0
16.35485029220581, 224.0
16.369511127471924, 215.0
16.38651418685913, 226.0
16.403738737106323, 222.0
16.42076349258423, 216.0
16.435227394104004, 206.0
16.452149152755737, 216.0
16.467204093933105, 227.0
16.48226284980774, 214.0
16.49781322479248, 227.0
16.51374888420105, 234.0
16.530821084976196, 241.0
16.546385765075684, 227.0
16.562204599380493, 244.0
16.578924894332886, 254.0
16.59544062614441, 262.0
16.611474752426147, 263.0
16.627395391464233, 250.0
16.64347505569458, 260.0
16.661134481430054, 242.0
16.676504373550415, 246.0
16.69154953956604, 228.0
16.706902503967285, 223.0
16.721608877182007, 216.0
16.735731840133667, 206.0
16.750276565551758, 192.0
16.766141414642334, 188.0
16.780875205993652, 183.0
16.7953622341156, 181.0
16.808681964874268, 184.0
16.822062969207764, 176.0
16.836403846740723, 172.0
16.85035729408264, 184.0
16.865453481674194, 195.0
16.881088256835938, 218.0
16.896268129348755, 218.0
16.910552263259888, 194.0
16.92579960823059, 193.0
16.939894199371338, 195.0
16.95463252067566, 210.0
16.96924352645874, 208.0
16.984377145767212, 215.0
16.999248266220093, 212.0
17.01482605934143, 200.0
17.02973175048828, 207.0
17.04522466659546, 214.0
17.06087899208069, 213.0
17.076526165008545, 231.0
17.091688632965088, 230.0
17.10696530342102, 230.0
17.12192726135254, 213.0
17.137476682662964, 226.0
17.152548789978027, 232.0
17.170073747634888, 238.0
17.185269117355347, 227.0
17.20095419883728, 241.0
17.216591835021973, 242.0
17.23224449157715, 242.0
17.24846386909485, 247.0
17.264021635055542, 242.0
17.279632806777954, 247.0
17.295332193374634, 249.0
17.310943603515625, 242.0
17.326424837112427, 230.0
17.341274738311768, 213.0
17.35647177696228, 222.0
17.371542930603027, 227.0
17.386682271957397, 229.0
17.40200686454773, 224.0
17.416961669921875, 212.0
17.431628227233887, 196.0
17.446050882339478, 201.0
17.46074414253235, 191.0
17.4743709564209, 189.0
17.487894773483276, 187.0
17.501327991485596, 187.0
17.514286041259766, 181.0
17.527294397354126, 185.0
17.540535926818848, 192.0
17.553565502166748, 194.0
17.567641496658325, 210.0
17.581757307052612, 221.0
17.598432064056396, 212.0
17.612436056137085, 212.0
17.626888275146484, 219.0
17.6407470703125, 210.0
17.65517497062683, 229.0
17.669804096221924, 233.0
17.68423581123352, 228.0
17.69863748550415, 222.0
17.714212656021118, 228.0
17.728923320770264, 228.0
17.74380612373352, 219.0
17.758729219436646, 222.0
17.774044275283813, 221.0
17.791778564453125, 218.0
17.8061306476593, 209.0
17.81944465637207, 203.0
17.8325457572937, 184.0
17.84576678276062, 193.0
17.859116792678833, 197.0
17.872347354888916, 192.0
17.885335445404053, 180.0
17.898775100708008, 180.0
17.911935567855835, 192.0
17.92473006248474, 183.0
17.93800139427185, 178.0
17.95110321044922, 172.0
17.96398377418518, 177.0
17.97717571258545, 191.0
17.990363597869873, 192.0
18.00358819961548, 193.0
18.017662286758423, 189.0
18.0309841632843, 194.0
18.04449963569641, 207.0
18.057664394378662, 183.0
18.07149338722229, 199.0
18.0851628780365, 205.0
18.09939408302307, 206.0
18.1136474609375, 206.0
18.12756037712097, 214.0
18.142216682434082, 219.0
18.156439781188965, 222.0
18.17067289352417, 210.0
18.184709548950195, 216.0
18.199085474014282, 209.0
18.213964223861694, 220.0
18.22851324081421, 219.0
18.243329286575317, 229.0
18.258016347885132, 235.0
18.27310299873352, 231.0
18.288101196289062, 235.0
18.302874088287354, 222.0
18.31753897666931, 230.0
18.336873531341553, 215.0
18.35377049446106, 216.0
18.370972871780396, 205.0
18.38585615158081, 209.0
18.4014790058136, 214.0
18.41563081741333, 204.0
18.42995834350586, 199.0
18.44401240348816, 202.0
18.459256649017334, 193.0
18.473347187042236, 200.0
18.48712134361267, 185.0
18.500628232955933, 195.0
18.514047145843506, 188.0
18.52772808074951, 192.0
18.540697813034058, 176.0
18.553743839263916, 183.0
18.56775403022766, 175.0
18.580815076828003, 171.0
18.593585729599, 170.0
18.606292963027954, 174.0
18.619466543197632, 159.0
18.632447719573975, 180.0
18.64525866508484, 171.0
18.65799832344055, 166.0
18.670873641967773, 174.0
18.683570623397827, 168.0
18.6962251663208, 172.0
18.708994388580322, 177.0
18.721574783325195, 173.0
18.73392605781555, 172.0
18.746711492538452, 184.0
18.75933527946472, 172.0
18.772388219833374, 168.0
18.785078287124634, 178.0
18.800268411636353, 185.0
18.81526255607605, 169.0
18.827865839004517, 176.0
18.840458869934082, 179.0
18.85300374031067, 179.0
18.865479230880737, 166.0
18.878411769866943, 191.0
18.891389846801758, 181.0
18.904117584228516, 167.0
18.916436910629272, 171.0
18.928675889968872, 152.0
18.940444707870483, 143.0
18.952285766601562, 146.0
18.963738203048706, 129.0
18.97633719444275, 122.0
18.987650156021118, 138.0
18.999109268188477, 134.0
19.011096477508545, 142.0
19.02310013771057, 140.0
19.035537481307983, 161.0
19.04853844642639, 176.0
19.061580181121826, 180.0
19.07498598098755, 176.0
19.088161945343018, 191.0
19.101534366607666, 187.0
19.115124702453613, 187.0
19.128544330596924, 170.0
19.14298701286316, 194.0
19.157310247421265, 203.0
19.172133922576904, 201.0
19.18748164176941, 237.0
19.203494548797607, 240.0
19.21999502182007, 262.0
19.237614631652832, 266.0
19.25545048713684, 298.0
19.273312091827393, 283.0
19.290953874588013, 280.0
19.309431791305542, 297.0
19.32716155052185, 293.0
19.345192670822144, 297.0
19.363315105438232, 306.0
19.382336854934692, 295.0
19.401732921600342, 302.0
19.42084002494812, 296.0
19.438796281814575, 295.0
19.45868992805481, 302.0
19.477717399597168, 304.0
19.49662137031555, 298.0
19.514599084854126, 287.0
19.53165292739868, 269.0
19.548206329345703, 247.0
19.5635724067688, 229.0
19.57960534095764, 213.0
19.594388008117676, 215.0
19.608964443206787, 210.0
19.624091148376465, 226.0
19.63791275024414, 206.0
19.652178287506104, 194.0
19.66659951210022, 176.0
19.679137706756592, 168.0
19.691091299057007, 136.0
19.702995538711548, 150.0
19.7143771648407, 142.0
19.72576117515564, 145.0
19.736884117126465, 129.0
19.748803853988647, 112.0
19.759708642959595, 111.0
19.76993155479431, 107.0
19.780309200286865, 103.0
19.791113138198853, 103.0
19.802477836608887, 116.0
19.814204454421997, 116.0
19.827568292617798, 119.0
19.839072704315186, 102.0
19.84983801841736, 100.0
19.861290454864502, 110.0
19.873314380645752, 133.0
19.885574340820312, 143.0
19.898287534713745, 170.0
19.91122579574585, 152.0
19.92413067817688, 157.0
19.93697166442871, 160.0
19.950817108154297, 171.0
19.9649977684021, 169.0
19.97933316230774, 180.0
19.994779348373413, 181.0
20.009416103363037, 176.0
20.02499294281006, 179.0
20.040671586990356, 180.0
20.05581283569336, 177.0
20.07085919380188, 187.0
20.085598707199097, 185.0
20.10140323638916, 182.0
20.11698603630066, 185.0
20.132526397705078, 181.0
20.147385358810425, 186.0
20.161258220672607, 187.0
20.17768907546997, 177.0
20.19102716445923, 152.0
20.204935789108276, 129.0
20.216704607009888, 104.0
20.229285717010498, 98.0
20.241936206817627, 106.0
20.25358510017395, 97.0
20.265713930130005, 67.0
20.27609395980835, 64.0
20.288758277893066, 85.0
20.299320220947266, 98.0
20.311927556991577, 110.0
20.324190139770508, 125.0
20.336480855941772, 124.0
20.348405599594116, 114.0
20.36039972305298, 126.0
20.372554540634155, 132.0
20.384498357772827, 139.0
20.396400690078735, 119.0
20.407814741134644, 100.0
20.420540809631348, 84.0
20.43318510055542, 83.0
20.44404649734497, 74.0
20.456797122955322, 65.0
20.46743416786194, 48.0
20.47799849510193, 34.0
20.48844599723816, 30.0
20.499035596847534, 29.0
20.51064419746399, 33.0
20.520935773849487, 32.0
20.532629251480103, 29.0
20.54309868812561, 37.0
20.55573058128357, 57.0
20.56725764274597, 64.0
20.580404043197632, 87.0
20.593619108200073, 101.0
20.60815191268921, 114.0
20.62229347229004, 131.0
20.638060331344604, 148.0
20.654494762420654, 163.0
20.671770334243774, 175.0
20.6896071434021, 207.0
20.709289073944092, 222.0
20.727210998535156, 229.0
20.745957851409912, 243.0
20.76473069190979, 241.0
20.78391456604004, 237.0
20.803208351135254, 245.0
20.82199740409851, 245.0
20.846938610076904, 264.0
20.865205764770508, 251.0
20.883448123931885, 279.0
20.901819467544556, 286.0
20.920319318771362, 286.0
20.93928098678589, 285.0
20.958426237106323, 291.0
20.97803044319153, 303.0
20.997894525527954, 289.0
21.017220973968506, 311.0
21.03637433052063, 301.0
21.055126190185547, 293.0
21.075380563735962, 300.0
21.0940043926239, 297.0
21.112748384475708, 289.0
21.13163447380066, 291.0
21.150578022003174, 292.0
21.168970823287964, 289.0
21.187416791915894, 289.0
21.205920219421387, 297.0
21.224796056747437, 284.0
21.242687702178955, 274.0
21.261099100112915, 274.0
21.27853226661682, 264.0
21.2955539226532, 264.0
21.313584327697754, 263.0
21.330891370773315, 259.0
21.347549438476562, 253.0
21.364222526550293, 258.0
21.380300998687744, 242.0
21.396580696105957, 240.0
21.412468194961548, 228.0
21.42897653579712, 231.0
21.445528984069824, 228.0
21.462259769439697, 221.0
21.478280305862427, 222.0
21.494245529174805, 222.0
21.509674072265625, 213.0
21.525481700897217, 217.0
21.54066038131714, 212.0
21.556159734725952, 213.0
21.572986364364624, 229.0
21.589009523391724, 224.0
21.604642152786255, 220.0
21.62176012992859, 216.0
21.637130737304688, 216.0
21.65235137939453, 200.0
21.667409658432007, 199.0
21.682952880859375, 219.0
21.698415756225586, 226.0
21.714366674423218, 224.0
21.73038077354431, 218.0
21.745542287826538, 212.0
21.760743856430054, 195.0
21.776224613189697, 218.0
21.79154086112976, 196.0
21.807087182998657, 206.0
21.82218289375305, 193.0
21.837133407592773, 183.0
21.8550808429718, 178.0
21.872762203216553, 176.0
21.887726068496704, 174.0
21.902536392211914, 168.0
21.917314052581787, 165.0
21.932831525802612, 176.0
21.94780158996582, 171.0
21.963064432144165, 194.0
21.979422330856323, 190.0
21.99478840827942, 187.0
22.010289192199707, 185.0
22.025756359100342, 190.0
22.041082620620728, 178.0
22.05664038658142, 188.0
22.071964263916016, 184.0
22.08881664276123, 189.0
22.106012105941772, 189.0
22.123204708099365, 181.0
22.14125370979309, 203.0
22.159303903579712, 197.0
22.178073167800903, 213.0
22.196969270706177, 204.0
22.2163188457489, 214.0
22.235443592071533, 208.0
22.255119800567627, 208.0
22.275434970855713, 214.0
22.295012950897217, 208.0
22.315293788909912, 221.0
22.334620714187622, 203.0
22.353344202041626, 192.0
22.37289047241211, 199.0
22.392024278640747, 192.0
22.411397695541382, 180.0
22.430301666259766, 193.0
22.44879937171936, 177.0
22.4676513671875, 179.0
22.48697566986084, 171.0
22.505733728408813, 187.0
22.52401566505432, 182.0
22.541111946105957, 186.0
22.559137105941772, 185.0
22.577889442443848, 187.0
22.597143173217773, 212.0
22.615816831588745, 237.0
22.63595151901245, 257.0
22.657159566879272, 274.0
22.680164575576782, 300.0
22.7029128074646, 321.0
22.72572088241577, 311.0
22.74755311012268, 304.0
22.769248008728027, 304.0
22.788825511932373, 277.0
22.808552742004395, 270.0
22.82705545425415, 282.0
22.844613790512085, 266.0
22.86159610748291, 234.0
22.882324695587158, 232.0
22.89775800704956, 187.0
22.91257095336914, 167.0
22.92757773399353, 167.0
22.941534280776978, 158.0
22.954790353775024, 158.0
22.96946954727173, 165.0
22.982816457748413, 168.0
22.995992422103882, 148.0
23.008558988571167, 135.0
23.02101159095764, 128.0
23.03343105316162, 123.0
23.045870542526245, 120.0
23.059364080429077, 117.0
23.07295513153076, 117.0
23.085330486297607, 111.0
23.0989248752594, 106.0
23.110724687576294, 104.0
23.122106552124023, 105.0
23.134801626205444, 83.0
23.146182537078857, 68.0
23.157155513763428, 70.0
23.167608737945557, 70.0
23.180199146270752, 63.0
23.191142797470093, 71.0
23.203920364379883, 70.0
23.21525478363037, 93.0
23.227919816970825, 86.0
23.2389976978302, 87.0
23.250181198120117, 82.0
23.26069951057434, 70.0
23.272149801254272, 68.0
23.282788038253784, 71.0
23.294052362442017, 74.0
23.304948568344116, 72.0
23.316194772720337, 82.0
23.327213048934937, 89.0
23.33930492401123, 98.0
23.35089874267578, 106.0
23.362950801849365, 102.0
23.37436079978943, 106.0
23.386340856552124, 106.0
23.39802622795105, 95.0
23.41036558151245, 105.0
23.42201542854309, 109.0
23.436781644821167, 105.0
23.448396921157837, 106.0
23.462912559509277, 97.0
23.47420024871826, 87.0
23.487914085388184, 98.0
23.499460220336914, 91.0
23.511560201644897, 99.0
23.52301597595215, 92.0
23.534904956817627, 89.0
23.546011447906494, 86.0
23.558834314346313, 74.0
23.570226907730103, 75.0
23.581904649734497, 65.0
23.592690229415894, 60.0
23.60393762588501, 62.0
23.61473774909973, 55.0
23.62748122215271, 50.0
23.637964487075806, 51.0
23.64902138710022, 51.0
23.659443140029907, 51.0
23.67014241218567, 51.0
23.682685375213623, 52.0
23.693063497543335, 45.0
23.70329260826111, 46.0
23.713648557662964, 42.0
23.72397232055664, 41.0
23.735060930252075, 42.0
23.74548077583313, 40.0
23.757152318954468, 44.0
23.76771306991577, 49.0
23.779099464416504, 51.0
23.78950333595276, 48.0
23.80189561843872, 59.0
23.81312608718872, 58.0
23.82403016090393, 61.0
23.834722757339478, 58.0
23.84615993499756, 57.0
23.857736587524414, 64.0
23.869023323059082, 62.0
23.879963636398315, 74.0
23.89656162261963, 75.0
23.908183097839355, 82.0
23.920271396636963, 84.0
23.93157720565796, 84.0
23.94356679916382, 101.0
23.95587682723999, 98.0
23.968923568725586, 92.0
23.980913162231445, 96.0
23.99343180656433, 105.0
24.006444215774536, 108.0
24.019927740097046, 120.0
24.033198833465576, 123.0
24.04663109779358, 128.0
24.06071901321411, 150.0
24.07548236846924, 159.0
24.09478759765625, 164.0
24.109042406082153, 181.0
24.124698162078857, 186.0
24.13951587677002, 200.0
24.155863761901855, 212.0
24.17219376564026, 226.0
24.194581508636475, 217.0
24.212920427322388, 223.0
24.23035740852356, 238.0
24.249022722244263, 256.0
24.26773953437805, 280.0
24.2854220867157, 266.0
24.30476450920105, 293.0
24.323021411895752, 289.0
24.3424232006073, 296.0
24.361902475357056, 290.0
24.381537914276123, 290.0
24.40205717086792, 314.0
24.422295093536377, 304.0
24.4442880153656, 321.0
24.467034578323364, 337.0
24.488752841949463, 330.0
24.511563777923584, 338.0
24.532880544662476, 330.0
24.555837392807007, 342.0
24.581233024597168, 355.0
24.60338807106018, 340.0
24.624736070632935, 345.0
24.646895170211792, 331.0
24.668701887130737, 335.0
24.69028329849243, 321.0
24.711009979248047, 338.0
24.73247480392456, 331.0
24.752973794937134, 313.0
24.775166034698486, 337.0
24.796157598495483, 321.0
24.817665338516235, 342.0
24.837306022644043, 316.0
24.858420610427856, 331.0
24.878607988357544, 312.0
24.90783405303955, 335.0
24.929438591003418, 300.0
24.949118852615356, 313.0
24.96847939491272, 318.0
24.98773956298828, 295.0
25.006893634796143, 298.0
25.025808572769165, 288.0
25.044524431228638, 283.0
25.063036918640137, 270.0
25.080828428268433, 274.0
25.098132371902466, 266.0
25.114702224731445, 259.0
25.132206678390503, 262.0
25.147734880447388, 236.0
25.16452646255493, 231.0
25.179969787597656, 212.0
25.19606304168701, 202.0
25.211047649383545, 194.0
25.225802183151245, 195.0
25.240063428878784, 195.0
25.253997325897217, 172.0
25.267417907714844, 177.0
25.281015157699585, 163.0
25.294151306152344, 161.0
25.308380842208862, 161.0
25.32105040550232, 156.0
25.33520197868347, 157.0
25.347769498825073, 154.0
25.360745191574097, 159.0
25.37388277053833, 156.0
25.38677477836609, 164.0
25.39915108680725, 154.0
25.413048267364502, 158.0
25.425230979919434, 154.0
25.43779683113098, 154.0
25.452888250350952, 152.0
25.465755462646484, 153.0
25.47817325592041, 157.0
25.492084741592407, 158.0
25.506115674972534, 154.0
25.518832683563232, 154.0
25.533029079437256, 159.0
25.545745372772217, 160.0
25.558960676193237, 167.0
25.572004079818726, 172.0
25.58544659614563, 156.0
25.59818935394287, 163.0
25.6111741065979, 151.0
25.62392520904541, 161.0
25.636988878250122, 157.0
25.649724006652832, 159.0
25.66275191307068, 139.0
25.676557302474976, 153.0
25.689833641052246, 140.0
25.70222043991089, 140.0
25.71454882621765, 133.0
25.727160692214966, 129.0
25.739455461502075, 125.0
25.751606225967407, 109.0
25.763869524002075, 98.0
25.775738954544067, 78.0
25.787626028060913, 80.0
25.799556970596313, 92.0
25.811236143112183, 79.0
25.824102878570557, 80.0
25.837666511535645, 60.0
25.84899926185608, 60.0
25.86050295829773, 59.0
25.872299671173096, 63.0
25.884269952774048, 50.0
25.896440029144287, 54.0
25.909668684005737, 71.0
25.924978256225586, 83.0
25.937034368515015, 103.0
25.94946527481079, 106.0
25.961438417434692, 118.0
25.97492218017578, 114.0
25.98797035217285, 115.0
26.001275300979614, 124.0
26.01516032218933, 113.0
26.028929471969604, 107.0
26.041754484176636, 120.0
26.05418109893799, 116.0
26.066336154937744, 120.0
26.078158378601074, 121.0
26.090063333511353, 122.0
26.101831674575806, 133.0
26.113205909729004, 116.0
26.124607801437378, 119.0
26.137444257736206, 122.0
26.14921236038208, 131.0
26.16081738471985, 126.0
26.17171859741211, 113.0
26.1833918094635, 111.0
26.196666479110718, 101.0
26.20742678642273, 100.0
26.218329906463623, 91.0
26.22901463508606, 73.0
26.23960828781128, 88.0
26.250280618667603, 78.0
26.260916233062744, 75.0
26.27328395843506, 91.0
26.284665822982788, 109.0
26.296436071395874, 100.0
26.3097243309021, 95.0
26.321919918060303, 103.0
26.333175659179688, 107.0
26.345390796661377, 112.0
26.35890769958496, 118.0
26.37134337425232, 121.0
26.384976625442505, 135.0
26.39923906326294, 139.0
26.41194438934326, 157.0
26.426296710968018, 163.0
26.44143009185791, 157.0
26.457398653030396, 132.0
26.47116994857788, 129.0
26.485169887542725, 135.0
26.498586416244507, 133.0
26.511159896850586, 118.0
26.523427724838257, 121.0
26.5349440574646, 106.0
26.54657220840454, 99.0
26.55826735496521, 98.0
26.570279598236084, 97.0
26.584253072738647, 94.0
26.597548961639404, 102.0
26.612783670425415, 91.0
26.62555170059204, 118.0
26.63866376876831, 115.0
26.651748180389404, 111.0
26.66468119621277, 99.0
26.677475690841675, 99.0
26.690922021865845, 111.0
26.704162120819092, 117.0
26.718582153320312, 134.0
26.732757568359375, 143.0
26.74760913848877, 138.0
26.76162886619568, 143.0
26.776108741760254, 131.0
26.790798902511597, 145.0
26.804052591323853, 132.0
26.817929983139038, 140.0
26.83092737197876, 130.0
26.843106508255005, 131.0
26.855392932891846, 110.0
26.867329835891724, 101.0
26.879319429397583, 101.0
26.892923593521118, 107.0
26.905351400375366, 98.0
26.91748070716858, 110.0
26.931354761123657, 98.0
26.94571542739868, 108.0
26.95799493789673, 99.0
26.970297813415527, 89.0
26.98224425315857, 83.0
26.99415874481201, 67.0
27.007601976394653, 73.0
27.018550395965576, 82.0
27.030192136764526, 71.0
27.043914794921875, 91.0
27.0575909614563, 85.0
27.0699200630188, 89.0
27.081725358963013, 101.0
27.096315622329712, 107.0
27.108283281326294, 111.0
27.12070918083191, 127.0
27.132392168045044, 118.0
27.144354104995728, 119.0
27.156329870224, 108.0
27.168325185775757, 105.0
27.180464267730713, 123.0
27.19365954399109, 126.0
27.20793104171753, 133.0
27.22089958190918, 122.0
27.23344588279724, 118.0
27.245372533798218, 106.0
27.25743269920349, 103.0
27.270432710647583, 119.0
27.28252387046814, 134.0
27.295919179916382, 137.0
27.308456659317017, 129.0
27.321413040161133, 117.0
27.33340358734131, 120.0
27.34535241127014, 107.0
27.35891819000244, 122.0
27.371323823928833, 130.0
27.383614540100098, 139.0
27.39792537689209, 152.0
27.4119291305542, 153.0
27.42534852027893, 154.0
27.43882131576538, 151.0
27.453837156295776, 150.0
27.468101739883423, 146.0
27.482258081436157, 124.0
27.495649576187134, 120.0
27.508732318878174, 138.0
27.522931575775146, 120.0
27.536930799484253, 129.0
27.550729990005493, 137.0
27.563612461090088, 130.0
27.577921628952026, 126.0
27.59187650680542, 131.0
27.607616424560547, 125.0
27.620648860931396, 129.0
27.634883165359497, 141.0
27.649099111557007, 121.0
27.6638343334198, 133.0
27.67814612388611, 127.0
27.69311761856079, 142.0
27.706865787506104, 135.0
27.7201144695282, 132.0
27.733931064605713, 115.0
27.746516704559326, 90.0
27.759119272232056, 100.0
27.771427392959595, 93.0
27.783738613128662, 84.0
27.79611611366272, 89.0
27.808475255966187, 84.0
27.820709943771362, 89.0
27.833452224731445, 86.0
27.846476078033447, 91.0
27.859089612960815, 105.0
27.87192177772522, 103.0
27.884918451309204, 105.0
27.89679741859436, 114.0
27.909920692443848, 123.0
27.921494960784912, 116.0
27.93341374397278, 106.0
27.946118593215942, 112.0
27.960686922073364, 115.0
27.972524166107178, 117.0
27.984027862548828, 108.0
27.9974262714386, 122.0
28.008934259414673, 114.0
28.020402431488037, 119.0
28.031482934951782, 106.0
28.04241371154785, 102.0
28.053765058517456, 96.0
28.065237998962402, 90.0
28.075966119766235, 99.0
28.087263584136963, 102.0
28.09809684753418, 98.0
28.10865545272827, 97.0
28.11903190612793, 92.0
28.130303144454956, 91.0
28.14091205596924, 98.0
28.15167236328125, 99.0
28.163208961486816, 91.0
28.174225568771362, 95.0
28.18544030189514, 98.0
28.197105407714844, 103.0
28.208994150161743, 101.0
28.22156310081482, 120.0
28.234936237335205, 119.0
28.248923540115356, 119.0
28.26167321205139, 109.0
28.274659156799316, 118.0
28.287811279296875, 115.0
28.302376747131348, 126.0
28.317288160324097, 158.0
28.33241581916809, 178.0
28.348071336746216, 207.0
28.36466884613037, 222.0
28.380250692367554, 207.0
28.39631676673889, 201.0
28.41152286529541, 163.0
28.42492413520813, 116.0
28.43791651725769, 93.0
28.449156761169434, 87.0
28.46173644065857, 74.0
28.472131490707397, 81.0
28.483097076416016, 64.0
28.494910717010498, 53.0
28.505003452301025, 38.0
28.51648473739624, 31.0
28.527445554733276, 37.0
28.538517475128174, 39.0
28.548004150390625, 37.0
28.557300567626953, 21.0
28.56862163543701, 20.0
28.577930212020874, 29.0
28.588939428329468, 30.0
28.598095655441284, 28.0
28.609269618988037, 32.0
28.618326902389526, 29.0
28.62931203842163, 22.0
28.638550996780396, 29.0
28.649760484695435, 28.0
28.659160137176514, 30.0
28.668697357177734, 32.0
28.67775321006775, 35.0
28.687990188598633, 35.0
28.697054862976074, 32.0
28.70641040802002, 35.0
28.715068578720093, 37.0
28.724968910217285, 31.0
28.73336410522461, 30.0
28.742522478103638, 38.0
28.75109887123108, 35.0
28.760389804840088, 30.0
28.76876735687256, 33.0
28.7796630859375, 33.0
28.788119554519653, 31.0
28.797354459762573, 30.0
28.806010961532593, 30.0
28.815096139907837, 29.0
28.823405265808105, 31.0
28.83590269088745, 25.0
28.846163272857666, 27.0
28.857995748519897, 31.0
28.868876218795776, 28.0
28.87906813621521, 25.0
28.88767147064209, 31.0
28.897452354431152, 28.0
28.905940055847168, 31.0
28.915993452072144, 29.0
28.92465329170227, 23.0
28.93388557434082, 30.0
28.942309617996216, 20.0
28.951520681381226, 25.0
28.960052728652954, 19.0
28.972442865371704, 22.0
28.98490571975708, 23.0
28.995368719100952, 23.0
29.003788232803345, 25.0
29.014538764953613, 21.0
29.022785425186157, 20.0
29.031588315963745, 20.0
29.04019832611084, 22.0
29.048866748809814, 18.0
29.056856393814087, 22.0
29.065953016281128, 20.0
29.074714183807373, 21.0
29.084256172180176, 15.0
29.092488050460815, 17.0
29.101078987121582, 17.0
29.109009504318237, 15.0
29.11766743659973, 16.0
29.125601768493652, 15.0
29.134315490722656, 14.0
29.142126321792603, 16.0
