1.435633897781372, 411.0
1.4769411087036133, 408.0
1.502335548400879, 411.0
1.5241446495056152, 410.0
1.5443181991577148, 411.0
1.5645501613616943, 405.0
1.5848462581634521, 402.0
1.6049458980560303, 408.0
1.6252570152282715, 410.0
1.6455867290496826, 413.0
1.6656396389007568, 411.0
1.6911399364471436, 409.0
1.711238145828247, 407.0
1.7313673496246338, 412.0
1.7514355182647705, 409.0
1.7715988159179688, 408.0
1.7927265167236328, 410.0
1.8137445449829102, 416.0
1.835986614227295, 415.0
1.8566136360168457, 415.0
1.8775036334991455, 416.0
1.8976449966430664, 412.0
1.918529987335205, 414.0
1.9401788711547852, 416.0
1.960495948791504, 413.0
1.9806647300720215, 414.0
2.0018091201782227, 414.0
2.0229008197784424, 414.0
2.046236515045166, 416.0
2.0753872394561768, 412.0
2.0968878269195557, 415.0
2.1195058822631836, 416.0
2.140979051589966, 414.0
2.1646533012390137, 413.0
2.1855218410491943, 412.0
2.2061259746551514, 407.0
2.2262628078460693, 413.0
2.2464616298675537, 408.0
2.2672390937805176, 414.0
2.287771701812744, 410.0
2.3079702854156494, 410.0
2.329045295715332, 409.0
2.348921775817871, 410.0
2.370234251022339, 410.0
2.390561580657959, 412.0
2.410893678665161, 412.0
2.4308300018310547, 412.0
2.451106071472168, 410.0
2.4737050533294678, 411.0
2.501117706298828, 408.0
2.5228688716888428, 411.0
2.5425772666931152, 411.0
2.562703847885132, 410.0
2.582490921020508, 410.0
2.6046159267425537, 408.0
2.6247365474700928, 413.0
2.6444146633148193, 410.0
2.6654388904571533, 410.0
2.6854135990142822, 407.0
2.7056822776794434, 411.0
2.7274506092071533, 411.0
2.749203681945801, 409.0
2.7699432373046875, 412.0
2.7897696495056152, 408.0
2.809830904006958, 411.0
2.8308496475219727, 408.0
2.8507165908813477, 408.0
2.870741605758667, 409.0
2.8911235332489014, 406.0
2.9109280109405518, 402.0
2.930842638015747, 402.0
2.9555041790008545, 401.0
2.9752397537231445, 403.0
2.9949870109558105, 410.0
3.014864921569824, 409.0
3.0343821048736572, 410.0
3.0544304847717285, 406.0
3.0741796493530273, 411.0
3.093902111053467, 411.0
3.1135494709014893, 407.0
3.1342997550964355, 402.0
3.154196262359619, 400.0
3.174506187438965, 396.0
3.1947550773620605, 402.0
3.2154722213745117, 400.0
3.2356245517730713, 393.0
3.255239248275757, 394.0
3.2748770713806152, 394.0
3.2943313121795654, 400.0
3.3135547637939453, 396.0
3.332887649536133, 396.0
3.3522629737854004, 394.0
3.3729395866394043, 395.0
3.3922359943389893, 391.0
3.412106513977051, 395.0
3.431645393371582, 392.0
3.4508514404296875, 391.0
3.470869541168213, 388.0
3.490178346633911, 393.0
3.518871784210205, 390.0
3.538726806640625, 394.0
3.559325933456421, 397.0
3.578606605529785, 396.0
3.5991997718811035, 396.0
3.6190547943115234, 401.0
3.6386961936950684, 404.0
3.6583445072174072, 398.0
3.678424119949341, 403.0
3.6979920864105225, 401.0
3.718358039855957, 405.0
3.7381668090820312, 408.0
3.7588050365448, 400.0
3.7786343097686768, 415.0
3.7984328269958496, 410.0
3.8185293674468994, 414.0
3.8386311531066895, 414.0
3.858729124069214, 410.0
3.878539562225342, 413.0
3.898922920227051, 414.0
3.919217348098755, 409.0
3.939126968383789, 415.0
3.9591526985168457, 410.0
3.979358434677124, 400.0
3.999145269393921, 404.0
4.019439220428467, 408.0
4.039107084274292, 401.0
4.059176206588745, 398.0
4.080256700515747, 397.0
4.105337381362915, 402.0
4.125438690185547, 398.0
4.145320415496826, 397.0
4.16557502746582, 392.0
4.185297727584839, 394.0
4.205443620681763, 396.0
4.225309371948242, 387.0
4.2449424266815186, 387.0
4.264779806137085, 390.0
4.284940958023071, 384.0
4.308591604232788, 390.0
4.328853607177734, 392.0
4.348919630050659, 391.0
4.3690361976623535, 386.0
4.388832092285156, 389.0
4.410060882568359, 386.0
4.430325508117676, 395.0
4.450562953948975, 391.0
4.470557689666748, 391.0
4.491414785385132, 383.0
4.512276649475098, 382.0
4.539093494415283, 385.0
4.558896064758301, 392.0
4.578726768493652, 391.0
4.599040269851685, 397.0
4.619449615478516, 393.0
4.639419078826904, 391.0
4.660026788711548, 396.0
4.679850816726685, 396.0
4.703747034072876, 390.0
4.724883556365967, 389.0
4.745020389556885, 388.0
4.765119552612305, 383.0
4.785082578659058, 400.0
4.805414199829102, 390.0
4.825589179992676, 390.0
4.845552444458008, 394.0
4.865420341491699, 399.0
4.885661363601685, 392.0
4.906153678894043, 390.0
4.9261744022369385, 394.0
4.946489095687866, 390.0
4.977758407592773, 392.0
5.0023229122161865, 397.0
5.023916244506836, 398.0
5.047192811965942, 397.0
5.067977666854858, 399.0
5.088255882263184, 399.0
5.108440399169922, 395.0
5.1291587352752686, 394.0
5.1495702266693115, 393.0
5.170468330383301, 399.0
5.190599679946899, 401.0
5.210546493530273, 389.0
5.230957269668579, 393.0
5.251443862915039, 387.0
5.271640777587891, 396.0
5.291742563247681, 391.0
5.312299489974976, 393.0
5.332592964172363, 390.0
5.354106187820435, 390.0
5.374418020248413, 394.0
5.394492864608765, 393.0
5.415208339691162, 402.0
5.435436010360718, 397.0
5.45571756362915, 400.0
5.477639198303223, 406.0
5.498076677322388, 403.0
5.519260406494141, 402.0
5.5422422885894775, 404.0
5.564393997192383, 406.0
5.584384202957153, 406.0
5.60534143447876, 404.0
5.625423431396484, 394.0
5.647072076797485, 406.0
5.667698621749878, 402.0
5.688454866409302, 402.0
5.7084081172943115, 408.0
5.728833198547363, 408.0
5.749647855758667, 405.0
5.769609451293945, 408.0
5.789554119110107, 403.0
5.809407711029053, 401.0
5.829546928405762, 406.0
5.849528789520264, 401.0
5.869457244873047, 402.0
5.88888955116272, 399.0
5.908958911895752, 392.0
5.928270578384399, 398.0
5.947376012802124, 387.0
5.966346502304077, 380.0
5.985179901123047, 377.0
6.00423264503479, 372.0
6.023754119873047, 373.0
6.044491767883301, 357.0
6.06246018409729, 351.0
6.080242156982422, 348.0
6.097575664520264, 342.0
6.114282608032227, 323.0
6.13152551651001, 327.0
6.148521661758423, 301.0
6.165124893188477, 302.0
6.180930137634277, 297.0
6.197421550750732, 284.0
6.215070724487305, 279.0
6.230934381484985, 277.0
6.245896100997925, 263.0
6.26033091545105, 250.0
6.275254011154175, 249.0
6.290306568145752, 255.0
6.305342197418213, 250.0
6.320016860961914, 248.0
6.335092544555664, 254.0
6.350249528884888, 245.0
6.365508556365967, 254.0
6.380457639694214, 246.0
6.394813776016235, 247.0
6.409083366394043, 240.0
6.423951625823975, 246.0
6.43852424621582, 262.0
6.453423023223877, 254.0
6.468347549438477, 258.0
6.483195066452026, 262.0
6.498117923736572, 261.0
6.51331901550293, 253.0
6.528966665267944, 268.0
6.544692516326904, 267.0
6.563422441482544, 282.0
6.58033299446106, 279.0
6.5950927734375, 267.0
6.6107213497161865, 271.0
6.626572132110596, 285.0
6.641886472702026, 267.0
6.658061265945435, 293.0
6.673807621002197, 285.0
6.6913228034973145, 289.0
6.707450866699219, 293.0
6.723662853240967, 285.0
6.740604639053345, 305.0
6.757725477218628, 312.0
6.774569988250732, 321.0
6.791961193084717, 322.0
6.812074661254883, 334.0
6.829884052276611, 342.0
6.847303152084351, 349.0
6.864745378494263, 350.0
6.8823041915893555, 356.0
6.900552988052368, 356.0
6.918070077896118, 349.0
6.936532735824585, 352.0
6.954041481018066, 352.0
6.972419261932373, 355.0
6.990720748901367, 365.0
7.008455276489258, 347.0
7.026494979858398, 365.0
7.045483112335205, 368.0
7.064328908920288, 357.0
7.081988096237183, 346.0
7.0991692543029785, 345.0
7.1171510219573975, 334.0
7.135109186172485, 346.0
7.153904438018799, 331.0
7.170809268951416, 325.0
7.188115358352661, 347.0
7.205209016799927, 326.0
7.222711801528931, 319.0
7.240771055221558, 325.0
7.259472131729126, 326.0
7.276804447174072, 330.0
7.294292449951172, 353.0
7.311664581298828, 355.0
7.329173564910889, 356.0
7.346287727355957, 359.0
7.363921880722046, 369.0
7.381093978881836, 362.0
7.398327350616455, 362.0
7.415647029876709, 358.0
7.432798862457275, 350.0
7.449826717376709, 342.0
7.4669883251190186, 349.0
7.484178781509399, 333.0
7.501194715499878, 340.0
7.518788576126099, 332.0
7.536742448806763, 323.0
7.5537309646606445, 327.0
7.570695638656616, 318.0
7.592160940170288, 320.0
7.609212398529053, 319.0
7.625962972640991, 324.0
7.642958164215088, 323.0
7.659698009490967, 300.0
7.676499605178833, 305.0
7.692732572555542, 306.0
7.711519002914429, 306.0
7.729039430618286, 306.0
7.745584726333618, 305.0
7.761597633361816, 309.0
7.77867579460144, 321.0
7.794816732406616, 315.0
7.811357021331787, 314.0
7.827230215072632, 308.0
7.843271493911743, 300.0
7.8593080043792725, 273.0
7.874819755554199, 278.0
7.890156030654907, 284.0
7.90633225440979, 283.0
7.921961545944214, 300.0
7.939312934875488, 287.0
7.9550440311431885, 309.0
7.971124172210693, 291.0
7.98647403717041, 294.0
8.002509593963623, 308.0
8.019436359405518, 295.0
8.035003662109375, 288.0
8.051751613616943, 288.0
8.06834363937378, 282.0
8.085164546966553, 284.0
8.10072922706604, 277.0
8.116196393966675, 269.0
8.132231950759888, 265.0
8.146730422973633, 253.0
8.161610126495361, 240.0
8.17665433883667, 244.0
8.19166874885559, 250.0
8.20686388015747, 236.0
8.221346855163574, 242.0
8.235641241073608, 248.0
8.250112056732178, 254.0
8.264621019363403, 235.0
8.279624223709106, 233.0
8.293083906173706, 225.0
8.308286428451538, 214.0
8.322137832641602, 226.0
8.336454153060913, 225.0
8.349882364273071, 238.0
8.363961935043335, 227.0
8.378003597259521, 218.0
8.39210820198059, 220.0
8.40596342086792, 212.0
8.4194016456604, 213.0
8.4331955909729, 212.0
8.446573734283447, 216.0
8.459713697433472, 234.0
8.474091053009033, 231.0
8.486964225769043, 221.0
8.500022888183594, 220.0
8.512830972671509, 212.0
8.526675939559937, 204.0
8.539471626281738, 206.0
8.55271029472351, 196.0
8.565652847290039, 210.0
8.578593254089355, 209.0
8.599238634109497, 206.0
8.614869356155396, 208.0
8.628639459609985, 204.0
8.641509294509888, 195.0
8.654876232147217, 211.0
8.667534828186035, 197.0
8.680894374847412, 196.0
8.693856716156006, 197.0
8.70652437210083, 186.0
8.719212532043457, 182.0
8.732880592346191, 179.0
8.745542049407959, 176.0
8.758870363235474, 170.0
8.77149486541748, 162.0
8.78487753868103, 170.0
8.79740571975708, 148.0
8.8094162940979, 151.0
8.82233738899231, 145.0
8.835873126983643, 147.0
8.849175453186035, 140.0
8.861396551132202, 142.0
8.873783111572266, 143.0
8.886874675750732, 141.0
8.899245977401733, 142.0
8.912331342697144, 143.0
8.92456579208374, 132.0
8.937870502471924, 128.0
8.951870918273926, 134.0
8.963503360748291, 136.0
8.976877212524414, 134.0
8.988416194915771, 119.0
9.00327444076538, 138.0
9.015312910079956, 131.0
9.027418613433838, 135.0
9.040356874465942, 146.0
9.05374002456665, 145.0
9.066877365112305, 136.0
9.079036474227905, 143.0
9.09129285812378, 134.0
9.104872703552246, 145.0
9.116697072982788, 141.0
9.129068374633789, 145.0
9.141334533691406, 151.0
9.153818368911743, 155.0
9.166210651397705, 172.0
9.178591966629028, 157.0
9.19140100479126, 166.0
9.204387903213501, 156.0
9.217502355575562, 179.0
9.230478763580322, 180.0
9.243515491485596, 187.0
9.259170293807983, 199.0
9.272629499435425, 199.0
9.287052392959595, 203.0
9.301257371902466, 205.0
9.31492018699646, 200.0
9.329385995864868, 240.0
9.344763994216919, 240.0
9.359252214431763, 256.0
9.374825716018677, 260.0
9.389945268630981, 280.0
9.406254768371582, 284.0
9.422289848327637, 287.0
9.43930721282959, 293.0
9.455121755599976, 295.0
9.472337484359741, 304.0
9.488515853881836, 309.0
9.505507230758667, 319.0
9.52324652671814, 312.0
9.54055905342102, 314.0
9.55756425857544, 310.0
9.57472014427185, 317.0
9.591673374176025, 321.0
9.613510131835938, 314.0
9.632511377334595, 319.0
9.649681091308594, 314.0
9.666412830352783, 325.0
9.684664011001587, 323.0
9.70173192024231, 326.0
9.718855857849121, 326.0
9.735862255096436, 322.0
9.753739833831787, 335.0
9.771141052246094, 335.0
9.788777351379395, 335.0
9.806196451187134, 343.0
9.824959516525269, 354.0
9.84313416481018, 349.0
9.86438798904419, 346.0
9.882456064224243, 356.0
9.901962995529175, 355.0
9.921975135803223, 354.0
9.940211772918701, 355.0
9.958383798599243, 352.0
9.9770667552948, 369.0
9.99625015258789, 377.0
10.015326499938965, 384.0
10.035391569137573, 376.0
10.055569648742676, 385.0
10.075165033340454, 390.0
10.095936298370361, 396.0
10.11581826210022, 401.0
10.135875225067139, 407.0
10.155651807785034, 403.0
10.177005290985107, 404.0
10.207290410995483, 405.0
10.227250576019287, 412.0
10.255027294158936, 408.0
10.275243997573853, 401.0
10.296305656433105, 403.0
10.31646203994751, 408.0
10.338166952133179, 410.0
10.35880732536316, 406.0
10.379363536834717, 403.0
10.398994445800781, 406.0
10.419831037521362, 394.0
10.439550161361694, 398.0
10.459221601486206, 385.0
10.47812032699585, 390.0
10.498086214065552, 392.0
10.517014741897583, 378.0
10.538137912750244, 381.0
10.558186769485474, 378.0
10.578166484832764, 371.0
10.597295045852661, 378.0
10.616872072219849, 369.0
10.64099383354187, 374.0
10.660495519638062, 370.0
10.6793532371521, 381.0
10.698703289031982, 377.0
10.72182011604309, 371.0
10.741425514221191, 377.0
10.76111888885498, 380.0
10.780035257339478, 381.0
10.798685073852539, 380.0
10.817628860473633, 381.0
10.83683466911316, 382.0
10.856779336929321, 380.0
10.87574577331543, 392.0
10.895086526870728, 389.0
10.914748907089233, 392.0
10.934635400772095, 383.0
10.954123258590698, 390.0
10.973820447921753, 389.0
10.99320936203003, 372.0
11.01293396949768, 374.0
11.031510591506958, 380.0
11.053043127059937, 366.0
11.071455478668213, 359.0
11.092069864273071, 342.0
11.109721422195435, 343.0
11.127230405807495, 340.0
11.143579483032227, 327.0
11.161830425262451, 330.0
11.177902221679688, 327.0
11.194303274154663, 319.0
11.21023964881897, 320.0
11.226641654968262, 315.0
11.24238109588623, 302.0
11.259418964385986, 308.0
11.275292158126831, 310.0
11.291670083999634, 310.0
11.307012796401978, 299.0
11.323386669158936, 298.0
11.337886095046997, 283.0
11.353279829025269, 280.0
11.367573976516724, 259.0
11.382673501968384, 275.0
11.396872282028198, 278.0
11.411807298660278, 276.0
11.426319599151611, 271.0
11.441985845565796, 279.0
11.45692491531372, 273.0
11.471883296966553, 275.0
11.486150026321411, 268.0
11.501877069473267, 284.0
11.516126871109009, 285.0
11.532444715499878, 295.0
11.546924352645874, 295.0
11.563374757766724, 309.0
11.578942775726318, 324.0
11.59564757347107, 324.0
11.611322164535522, 335.0
11.630748271942139, 344.0
11.65267038345337, 346.0
11.670405149459839, 355.0
11.687448501586914, 362.0
11.705156326293945, 364.0
11.72223162651062, 364.0
11.743029832839966, 368.0
11.76092004776001, 369.0
11.778661489486694, 365.0
11.796422004699707, 374.0
11.814715385437012, 377.0
11.832236289978027, 371.0
11.851039409637451, 376.0
11.869623184204102, 377.0
11.888277769088745, 379.0
11.908334016799927, 377.0
11.926943302154541, 379.0
11.944872379302979, 381.0
11.963473320007324, 386.0
11.982648134231567, 378.0
12.002657890319824, 377.0
12.021589517593384, 384.0
12.040387630462646, 381.0
12.059002161026001, 383.0
12.078492164611816, 387.0
12.097064971923828, 384.0
12.115687847137451, 386.0
12.134310722351074, 388.0
12.153343915939331, 397.0
12.171849966049194, 398.0
12.190762996673584, 395.0
12.209784746170044, 397.0
12.229429244995117, 393.0
12.247888565063477, 387.0
12.266937971115112, 387.0
12.285054445266724, 385.0
12.303744792938232, 386.0
12.322370767593384, 384.0
12.34093189239502, 384.0
12.360251665115356, 386.0
12.379215717315674, 386.0
12.397419214248657, 394.0
12.41637659072876, 389.0
12.434645652770996, 391.0
12.453636407852173, 392.0
12.472441673278809, 387.0
12.491106510162354, 381.0
12.509234189987183, 383.0
12.529526710510254, 381.0
12.548391103744507, 374.0
12.568264245986938, 379.0
12.58629322052002, 372.0
12.604774713516235, 379.0
12.623181819915771, 376.0
12.641451597213745, 372.0
12.662778615951538, 371.0
12.682853937149048, 374.0
12.700216054916382, 365.0
12.718315124511719, 363.0
12.73585820198059, 353.0
12.754045009613037, 365.0
12.771723508834839, 350.0
12.789590120315552, 348.0
12.80665636062622, 349.0
12.825377225875854, 346.0
12.842204809188843, 352.0
12.862636804580688, 345.0
12.880337715148926, 344.0
12.897801876068115, 336.0
12.914287090301514, 339.0
12.932052373886108, 335.0
12.948537826538086, 330.0
12.965741157531738, 334.0
12.982474327087402, 333.0
12.9998619556427, 328.0
13.016512155532837, 336.0
13.033662796020508, 325.0
13.051856994628906, 325.0
13.068594455718994, 328.0
13.084561109542847, 321.0
13.10175895690918, 333.0
13.117697477340698, 322.0
13.134345531463623, 326.0
13.150095462799072, 310.0
13.166297197341919, 310.0
13.182568550109863, 313.0
13.199618816375732, 325.0
13.215334177017212, 320.0
13.231927633285522, 334.0
13.248045206069946, 328.0
13.264914274215698, 332.0
13.28112506866455, 338.0
13.297888994216919, 338.0
13.314587593078613, 353.0
13.33213758468628, 355.0
13.35047197341919, 372.0
13.370545864105225, 374.0
13.391554117202759, 380.0
13.410163402557373, 373.0
13.428448677062988, 381.0
13.446788311004639, 377.0
13.464604377746582, 375.0
13.483132123947144, 380.0
13.500697612762451, 373.0
13.519325017929077, 382.0
13.537983655929565, 382.0
13.55802583694458, 382.0
13.576110363006592, 381.0
13.594965696334839, 389.0
13.613765716552734, 390.0
13.633452653884888, 393.0
13.651699781417847, 384.0
13.676573276519775, 386.0
13.695740461349487, 390.0
13.713666915893555, 385.0
13.734366416931152, 384.0
13.752470254898071, 389.0
13.771591901779175, 391.0
13.789785385131836, 389.0
13.807844161987305, 383.0
13.825982570648193, 390.0
13.844910621643066, 379.0
13.86271595954895, 379.0
13.882307291030884, 381.0
13.899943113327026, 381.0
13.91782832145691, 378.0
13.935511350631714, 383.0
13.95342206954956, 383.0
13.970775127410889, 368.0
13.987956762313843, 352.0
14.005135774612427, 365.0
14.022332429885864, 355.0
14.039404392242432, 359.0
14.058152675628662, 357.0
14.074810981750488, 354.0
14.092867612838745, 342.0
14.10893988609314, 338.0
14.125736951828003, 338.0
14.141774415969849, 339.0
14.158437013626099, 341.0
14.174226522445679, 334.0
14.190281867980957, 323.0
14.20650339126587, 324.0
14.223550796508789, 330.0
14.239162921905518, 330.0
14.255659580230713, 311.0
14.271772146224976, 311.0
14.288556098937988, 317.0
14.30385684967041, 308.0
14.320419311523438, 308.0
14.336290836334229, 311.0
14.352418184280396, 307.0
14.368374586105347, 314.0
14.38546109199524, 315.0
14.401302814483643, 314.0
14.417208671569824, 307.0
14.434389352798462, 319.0
14.451578617095947, 316.0
14.467392444610596, 313.0
14.484522342681885, 322.0
14.500556707382202, 319.0
14.517693758010864, 330.0
14.538867235183716, 339.0
14.555561542510986, 333.0
14.572046995162964, 339.0
14.58881664276123, 341.0
14.605712175369263, 340.0
14.626999378204346, 334.0
14.644851922988892, 343.0
14.662140846252441, 350.0
14.679299354553223, 346.0
14.701266288757324, 352.0
14.72012972831726, 361.0
14.73784351348877, 372.0
14.756535768508911, 362.0
14.774302244186401, 375.0
14.792951345443726, 379.0
14.810670375823975, 376.0
14.82929515838623, 378.0
14.848011493682861, 389.0
14.867361545562744, 387.0
14.886367082595825, 389.0
14.905155658721924, 386.0
14.924159049987793, 394.0
14.943420171737671, 389.0
14.963201522827148, 392.0
14.982198715209961, 390.0
15.001138925552368, 389.0
15.022593259811401, 393.0
15.04417610168457, 384.0
15.06437349319458, 384.0
15.083163738250732, 392.0
15.103193998336792, 390.0
15.12190294265747, 384.0
15.14194130897522, 391.0
15.1600980758667, 381.0
15.178871870040894, 378.0
15.197380065917969, 389.0
15.216317415237427, 392.0
15.234776735305786, 386.0
15.254947423934937, 386.0
15.273277521133423, 385.0
15.292269229888916, 396.0
15.310388565063477, 386.0
15.329370975494385, 390.0
15.348044395446777, 387.0
15.36797046661377, 384.0
15.386365175247192, 394.0
15.404911279678345, 386.0
15.437184572219849, 381.0
15.457424402236938, 384.0
15.475597858428955, 377.0
15.49426794052124, 383.0
15.512694597244263, 385.0
15.532417297363281, 387.0
15.551060438156128, 382.0
15.569458723068237, 379.0
15.587676525115967, 377.0
15.605796098709106, 374.0
15.62372374534607, 379.0
15.641864538192749, 369.0
15.659361839294434, 374.0
15.677910566329956, 368.0
15.695497274398804, 361.0
15.719878435134888, 365.0
15.737998485565186, 361.0
15.755257844924927, 355.0
15.772967338562012, 364.0
15.790956020355225, 354.0
15.809124231338501, 357.0
15.828199863433838, 356.0
15.844860076904297, 350.0
15.861854553222656, 345.0
15.877669334411621, 327.0
15.894444704055786, 329.0
15.910616159439087, 327.0
15.927611827850342, 317.0
15.943583488464355, 312.0
15.961569547653198, 309.0
15.976887226104736, 304.0
15.993035554885864, 304.0
16.009084224700928, 286.0
16.024969816207886, 287.0
16.039406776428223, 272.0
16.056196689605713, 266.0
16.070802688598633, 262.0
16.08604621887207, 251.0
16.099923849105835, 252.0
16.11441421508789, 245.0
16.129700899124146, 249.0
16.144493579864502, 230.0
16.157411575317383, 225.0
16.170673847198486, 199.0
16.18355679512024, 198.0
16.196836948394775, 211.0
16.20949935913086, 190.0
16.22274422645569, 195.0
16.23520517349243, 192.0
16.249584197998047, 197.0
16.26197099685669, 191.0
16.274824619293213, 182.0
16.28697967529297, 199.0
16.299649238586426, 198.0
16.311720848083496, 192.0
16.324488878250122, 183.0
16.33688473701477, 188.0
16.34973406791687, 197.0
16.361983060836792, 209.0
16.375882863998413, 208.0
16.388431072235107, 211.0
16.4012188911438, 210.0
16.413360834121704, 208.0
16.426714181900024, 193.0
16.43900156021118, 215.0
16.453486442565918, 210.0
16.465686082839966, 212.0
16.4784893989563, 200.0
16.491246938705444, 214.0
16.5044207572937, 206.0
16.51676917076111, 225.0
16.531033754348755, 234.0
16.54422378540039, 223.0
16.558252573013306, 224.0
16.57134485244751, 247.0
16.584909200668335, 237.0
16.59769296646118, 244.0
16.611079931259155, 241.0
16.623834133148193, 237.0
16.637938499450684, 231.0
16.65069317817688, 216.0
16.663538694381714, 198.0
16.67607593536377, 217.0
16.688978672027588, 202.0
16.700451612472534, 169.0
16.71255660057068, 138.0
16.72735357284546, 121.0
16.740534782409668, 112.0
16.750946283340454, 89.0
16.762420654296875, 110.0
16.77498507499695, 167.0
16.787311553955078, 160.0
16.799854278564453, 196.0
16.813879251480103, 224.0
16.82722306251526, 253.0
16.84268569946289, 276.0
16.85782814025879, 298.0
16.8745379447937, 324.0
16.89064049720764, 330.0
16.90803575515747, 339.0
16.925041913986206, 354.0
16.943055629730225, 359.0
16.960337162017822, 362.0
16.97815752029419, 369.0
16.99596118927002, 368.0
17.014171600341797, 371.0
17.031916856765747, 366.0
17.0523464679718, 375.0
17.070217609405518, 378.0
17.08856987953186, 378.0
17.106658697128296, 384.0
17.124855279922485, 378.0
17.142327070236206, 373.0
17.16063928604126, 371.0
17.178075313568115, 374.0
17.196387767791748, 377.0
17.214350938796997, 372.0
17.232369422912598, 373.0
17.250072240829468, 369.0
17.26826500892639, 372.0
17.285657167434692, 370.0
17.303662061691284, 375.0
17.32224464416504, 379.0
17.340392112731934, 371.0
17.357946395874023, 377.0
17.375977993011475, 373.0
17.393173694610596, 359.0
17.411866903305054, 375.0
17.430103540420532, 365.0
17.44813823699951, 370.0
17.465453624725342, 371.0
17.483479976654053, 368.0
17.500582218170166, 364.0
17.518231630325317, 361.0
17.536041259765625, 361.0
17.553476810455322, 351.0
17.57056736946106, 356.0
17.58860683441162, 372.0
17.60636329650879, 374.0
17.62447214126587, 376.0
17.64620542526245, 373.0
17.664611101150513, 370.0
17.682642936706543, 369.0
17.701472997665405, 373.0
17.71955633163452, 379.0
17.743367433547974, 381.0
17.763444662094116, 382.0
17.782382488250732, 388.0
17.800228357315063, 381.0
17.818591594696045, 381.0
17.837013959884644, 385.0
17.855385065078735, 378.0
17.87326407432556, 377.0
17.89182448387146, 383.0
17.91043972969055, 390.0
17.928570985794067, 381.0
17.946075916290283, 380.0
17.96393609046936, 373.0
17.980586767196655, 371.0
17.998971223831177, 367.0
18.017098426818848, 364.0
18.035083055496216, 356.0
18.05554747581482, 349.0
18.072773694992065, 336.0
18.088733196258545, 325.0
18.104823112487793, 319.0
18.119981050491333, 315.0
18.135968446731567, 302.0
18.1514151096344, 304.0
18.167603969573975, 300.0
18.18257975578308, 310.0
18.198315143585205, 303.0
18.213432550430298, 310.0
18.229011297225952, 294.0
18.244143962860107, 299.0
18.259968519210815, 305.0
18.275057315826416, 288.0
18.290524005889893, 296.0
18.30532217025757, 307.0
18.322004318237305, 303.0
18.336963176727295, 312.0
18.352834224700928, 308.0
18.367650508880615, 304.0
18.38431429862976, 323.0
18.399470567703247, 318.0
18.415754795074463, 316.0
18.43136978149414, 316.0
18.448557138442993, 327.0
18.46445107460022, 324.0
18.481524229049683, 335.0
18.49752950668335, 333.0
18.514447927474976, 333.0
18.53075885772705, 335.0
18.548089027404785, 349.0
18.564628839492798, 349.0
18.58199954032898, 353.0
18.598896265029907, 366.0
18.61662197113037, 367.0
18.633057594299316, 350.0
18.650660514831543, 347.0
18.6677508354187, 355.0
18.685065031051636, 345.0
18.701660871505737, 354.0
18.719277381896973, 353.0
18.73775553703308, 356.0
18.763912677764893, 357.0
18.78199863433838, 358.0
18.79913592338562, 356.0
18.816249132156372, 352.0
18.836527824401855, 347.0
18.853777647018433, 331.0
18.8707492351532, 334.0
18.887914419174194, 342.0
18.905207872390747, 337.0
18.9217529296875, 333.0
18.938457489013672, 342.0
18.9550998210907, 340.0
18.971737384796143, 332.0
18.988800525665283, 342.0
19.0057373046875, 338.0
19.02284860610962, 332.0
19.039921045303345, 332.0
19.06095814704895, 321.0
19.077982902526855, 337.0
19.09476327896118, 334.0
19.111868143081665, 336.0
19.12809944152832, 339.0
19.145146369934082, 339.0
19.161296606063843, 339.0
19.17886233329773, 340.0
19.195979595184326, 351.0
19.21333599090576, 343.0
19.229736328125, 341.0
19.24639320373535, 337.0
19.263141632080078, 349.0
19.281081438064575, 348.0
19.298064470291138, 345.0
19.315099954605103, 349.0
19.331783056259155, 347.0
19.34902596473694, 351.0
19.365654468536377, 361.0
19.382842779159546, 354.0
19.39957332611084, 353.0
19.416736841201782, 350.0
19.433454751968384, 356.0
19.451000690460205, 360.0
19.470733165740967, 359.0
19.488389015197754, 363.0
19.50529432296753, 349.0
19.522061109542847, 346.0
19.53951096534729, 346.0
19.556485891342163, 349.0
19.572620391845703, 347.0
19.589266061782837, 341.0
19.605438947677612, 342.0
19.622701406478882, 337.0
19.638811349868774, 342.0
19.655827045440674, 336.0
19.671976804733276, 347.0
19.688625812530518, 340.0
19.70542311668396, 343.0
19.721686363220215, 335.0
19.740074396133423, 346.0
19.756700038909912, 330.0
19.776190280914307, 336.0
19.794714212417603, 333.0
19.810431241989136, 323.0
19.82676601409912, 320.0
19.842822074890137, 334.0
19.85960817337036, 340.0
19.875614643096924, 330.0
19.8919517993927, 335.0
19.908245086669922, 330.0
19.924365043640137, 333.0
19.940192222595215, 333.0
19.9564425945282, 333.0
19.97252631187439, 335.0
19.98923349380493, 335.0
20.00502872467041, 327.0
20.02060627937317, 317.0
20.03609585762024, 322.0
20.05285143852234, 316.0
20.068260192871094, 320.0
20.0845365524292, 323.0
20.10072684288025, 329.0
20.117596864700317, 352.0
20.133557081222534, 349.0
20.1500461101532, 340.0
20.165714979171753, 344.0
20.182833909988403, 354.0
20.198780298233032, 345.0
20.215869426727295, 341.0
20.232220888137817, 338.0
20.249719858169556, 339.0
20.265463829040527, 325.0
20.282708406448364, 333.0
20.298583507537842, 314.0
20.3146870136261, 309.0
20.329493284225464, 286.0
20.344441413879395, 286.0
20.36063528060913, 274.0
20.377117395401, 289.0
20.392051458358765, 303.0
20.409351110458374, 315.0
20.42549729347229, 340.0
20.442649126052856, 341.0
20.45928406715393, 353.0
20.478102207183838, 370.0
20.496108770370483, 373.0
20.514673233032227, 367.0
20.532556295394897, 378.0
20.551878929138184, 366.0
20.569841623306274, 381.0
20.589996337890625, 392.0
20.60988473892212, 389.0
20.629239320755005, 390.0
20.649399757385254, 400.0
20.669207096099854, 397.0
20.689663887023926, 404.0
20.70908546447754, 399.0
20.728395462036133, 401.0
20.74839210510254, 398.0
20.76869225502014, 410.0
20.794862747192383, 398.0
20.81627893447876, 389.0
20.835782051086426, 396.0
20.854484796524048, 401.0
20.874362468719482, 402.0
20.89324426651001, 392.0
20.912888050079346, 399.0
20.931570291519165, 400.0
20.951264142990112, 401.0
20.970744371414185, 393.0
20.9903666973114, 394.0
21.009358167648315, 398.0
21.028724431991577, 391.0
21.049209356307983, 383.0
21.068543672561646, 384.0
21.086800813674927, 382.0
21.105812311172485, 382.0
21.123552083969116, 365.0
21.142324924468994, 368.0
21.159481287002563, 371.0
21.177411317825317, 360.0
21.194299697875977, 341.0
21.211678981781006, 332.0
21.22720456123352, 322.0
21.244723796844482, 324.0
21.260615825653076, 344.0
21.277466535568237, 333.0
21.292498111724854, 287.0
21.306726694107056, 276.0
21.319278955459595, 225.0
21.33278799057007, 239.0
21.34575080871582, 240.0
21.359375, 247.0
21.3732590675354, 260.0
21.387065649032593, 248.0
21.399447441101074, 215.0
21.41301131248474, 206.0
21.42583990097046, 213.0
21.441630125045776, 236.0
21.456300258636475, 281.0
21.4734148979187, 302.0
21.489580392837524, 315.0
21.506009101867676, 306.0
21.52094841003418, 286.0
21.53743886947632, 311.0
21.55589771270752, 320.0
21.572030782699585, 309.0
21.589906454086304, 304.0
21.60610818862915, 304.0
21.622202396392822, 304.0
21.638388633728027, 306.0
21.655293464660645, 287.0
21.671257972717285, 294.0
21.687073230743408, 292.0
21.70323157310486, 273.0
21.719048261642456, 270.0
21.73491358757019, 242.0
21.750738859176636, 239.0
21.764902591705322, 228.0
21.77902889251709, 252.0
21.792949676513672, 244.0
21.81190037727356, 208.0
21.826890230178833, 173.0
21.839605808258057, 162.0
21.852884769439697, 163.0
21.864962577819824, 159.0
21.877878189086914, 141.0
21.892081260681152, 101.0
21.9030864238739, 99.0
21.915825843811035, 98.0
21.927059650421143, 83.0
21.939697265625, 125.0
21.95089054107666, 105.0
21.963802099227905, 110.0
21.976813077926636, 116.0
21.987300872802734, 134.0
21.998663663864136, 141.0
22.011874198913574, 144.0
22.023634433746338, 135.0
22.036207675933838, 126.0
22.04987668991089, 104.0
22.062124967575073, 101.0
22.07453179359436, 90.0
22.086201667785645, 79.0
22.09814214706421, 74.0
22.109452486038208, 73.0
22.11965036392212, 87.0
22.1318039894104, 87.0
22.142022132873535, 106.0
22.15301489830017, 121.0
22.16404938697815, 135.0
22.176560640335083, 158.0
22.18771982192993, 183.0
22.20027732849121, 220.0
22.213882446289062, 251.0
22.227970361709595, 271.0
22.24205446243286, 275.0
22.259488105773926, 300.0
22.27498459815979, 320.0
22.29190993309021, 343.0
22.308576583862305, 342.0
22.32585120201111, 351.0
22.342852354049683, 345.0
22.360219955444336, 356.0
22.377841472625732, 348.0
22.395896673202515, 353.0
22.414022207260132, 363.0
22.43197464942932, 359.0
22.450344800949097, 358.0
22.46913433074951, 354.0
22.48748779296875, 366.0
22.50674796104431, 367.0
22.52590274810791, 357.0
22.54515051841736, 371.0
22.56370186805725, 365.0
22.581754446029663, 371.0
22.599425792694092, 354.0
22.618086099624634, 364.0
22.636231660842896, 370.0
22.654367446899414, 360.0
22.672287702560425, 365.0
22.69031000137329, 362.0
22.708927154541016, 372.0
22.72701907157898, 368.0
22.747468948364258, 368.0
22.76605486869812, 362.0
22.784055709838867, 367.0
22.80230951309204, 369.0
22.8294780254364, 372.0
22.848714351654053, 369.0
22.867633819580078, 369.0
22.885571479797363, 377.0
22.904029607772827, 376.0
22.92160415649414, 376.0
22.939975261688232, 372.0
22.957698822021484, 375.0
22.976479291915894, 378.0
22.99417495727539, 372.0
23.012866973876953, 385.0
23.030567169189453, 386.0
23.052833080291748, 377.0
23.071036100387573, 376.0
23.08971858024597, 379.0
23.108537912368774, 375.0
23.126869916915894, 381.0
23.144340991973877, 374.0
23.16273283958435, 388.0
23.180345058441162, 382.0
23.199592351913452, 384.0
23.217012405395508, 385.0
23.23582124710083, 378.0
23.25451111793518, 388.0
23.273324251174927, 384.0
23.29150152206421, 373.0
23.31601047515869, 386.0
23.334347009658813, 383.0
23.35366702079773, 376.0
23.371434211730957, 372.0
23.390321493148804, 379.0
23.409234285354614, 380.0
23.42778444290161, 381.0
23.445014238357544, 381.0
23.46311902999878, 381.0
23.48029851913452, 366.0
23.49819278717041, 364.0
23.515774250030518, 371.0
23.53357243537903, 361.0
23.551713228225708, 361.0
23.56965923309326, 363.0
23.58658766746521, 359.0
23.604533433914185, 366.0
23.621265172958374, 364.0
23.63903522491455, 363.0
23.658931016921997, 365.0
23.676867723464966, 363.0
23.693751573562622, 366.0
23.711564302444458, 371.0
23.728830099105835, 372.0
23.746458530426025, 363.0
23.76374363899231, 372.0
23.78215456008911, 380.0
23.79904055595398, 378.0
23.817355155944824, 385.0
23.837377786636353, 396.0
23.858044862747192, 387.0
23.875714778900146, 395.0
23.894553661346436, 390.0
23.91258978843689, 393.0
23.932100772857666, 400.0
23.950613975524902, 394.0
23.97022294998169, 393.0
23.988664388656616, 390.0
24.00823450088501, 388.0
24.026406288146973, 382.0
24.048203945159912, 383.0
24.067023754119873, 386.0
24.08664345741272, 388.0
24.105159759521484, 387.0
24.12463617324829, 383.0
24.143357276916504, 387.0
24.16285538673401, 385.0
24.182225227355957, 391.0
24.202224016189575, 393.0
24.22070813179016, 391.0
24.24043560028076, 396.0
24.259521484375, 397.0
24.28139305114746, 392.0
24.300804376602173, 396.0
24.32041096687317, 402.0
24.33936357498169, 407.0
24.35929536819458, 406.0
24.378419637680054, 407.0
24.39839792251587, 414.0
24.418054819107056, 402.0
24.43817114830017, 399.0
24.457010746002197, 388.0
24.476956605911255, 393.0
24.495452880859375, 385.0
24.51470112800598, 377.0
24.532434940338135, 366.0
24.557209491729736, 349.0
24.574831247329712, 334.0
24.59166145324707, 329.0
24.609336376190186, 342.0
24.626213312149048, 317.0
24.64210081100464, 285.0
24.657474756240845, 276.0
24.672548294067383, 254.0
24.687427043914795, 237.0
24.702800273895264, 271.0
24.717650651931763, 281.0
24.732924222946167, 299.0
24.748088121414185, 276.0
24.764275789260864, 274.0
24.780234575271606, 279.0
24.79696249961853, 278.0
24.811350107192993, 244.0
24.82607388496399, 240.0
24.840224504470825, 208.0
24.857515335083008, 175.0
24.872393369674683, 157.0
24.886281967163086, 151.0
24.898249626159668, 129.0
24.910863399505615, 110.0
24.921543836593628, 102.0
24.933043003082275, 91.0
24.944042205810547, 85.0
24.955060958862305, 103.0
24.967767000198364, 92.0
24.97907829284668, 107.0
24.989992141723633, 114.0
25.002670526504517, 113.0
25.01371669769287, 105.0
25.024898767471313, 104.0
25.037570476531982, 96.0
25.04998517036438, 94.0
25.0610191822052, 80.0
25.071972846984863, 81.0
25.083004474639893, 76.0
25.093968152999878, 74.0
25.1064350605011, 86.0
25.117062091827393, 77.0
25.129510164260864, 100.0
25.142051935195923, 97.0
25.154452800750732, 97.0
25.165114879608154, 107.0
25.1767361164093, 93.0
25.188264846801758, 98.0
25.200923442840576, 104.0
25.212541580200195, 104.0
25.224079847335815, 100.0
25.235491275787354, 94.0
25.2470760345459, 92.0
25.260068893432617, 94.0
25.272785902023315, 105.0
25.284896850585938, 95.0
25.29555320739746, 90.0
25.3067147731781, 88.0
25.31950855255127, 92.0
25.331430435180664, 98.0
25.343021392822266, 88.0
25.35306167602539, 72.0
25.36344265937805, 71.0
25.373352527618408, 65.0
25.38368844985962, 51.0
25.393903017044067, 54.0
25.40414309501648, 57.0
25.41410732269287, 52.0
25.424317121505737, 51.0
25.43418574333191, 42.0
25.444865942001343, 49.0
25.454947233200073, 49.0
25.465283632278442, 46.0
25.475577354431152, 56.0
25.486125469207764, 48.0
25.495840072631836, 48.0
25.506266593933105, 57.0
25.516634464263916, 57.0
25.527217864990234, 60.0
25.537304639816284, 58.0
25.549768209457397, 75.0
25.55980682373047, 64.0
25.570335626602173, 73.0
25.580317735671997, 76.0
25.590840101242065, 74.0
25.60103988647461, 78.0
25.612061023712158, 81.0
25.622347831726074, 60.0
25.63291835784912, 70.0
25.64408779144287, 76.0
25.654913425445557, 83.0
25.665772199630737, 85.0
25.677074432373047, 95.0
25.687668323516846, 101.0
25.698938846588135, 113.0
25.710010528564453, 121.0
25.722235441207886, 123.0
25.734086990356445, 153.0
25.74658489227295, 162.0
25.76168465614319, 179.0
25.77509617805481, 193.0
25.788079261779785, 195.0
25.803204774856567, 225.0
25.81700873374939, 241.0
25.832447052001953, 255.0
25.846559762954712, 257.0
25.878500938415527, 267.0
25.899906873703003, 290.0
25.916317224502563, 298.0
25.932504415512085, 324.0
25.949679374694824, 327.0
25.9667227268219, 352.0
25.985066652297974, 349.0
26.00367307662964, 366.0
26.021986961364746, 367.0
26.03968644142151, 371.0
26.059013843536377, 371.0
26.077184915542603, 380.0
26.096497297286987, 385.0
26.114596128463745, 387.0
26.13406276702881, 390.0
26.152515649795532, 392.0
26.171390533447266, 381.0
26.19047236442566, 384.0
26.209497451782227, 377.0
26.228320837020874, 379.0
26.24787664413452, 387.0
26.26617980003357, 383.0
26.28511929512024, 381.0
26.303359985351562, 388.0
26.32242512702942, 386.0
26.34050941467285, 389.0
26.35925793647766, 378.0
26.37713360786438, 381.0
26.395843505859375, 379.0
26.414703845977783, 376.0
26.433616638183594, 379.0
26.452025413513184, 376.0
26.470515727996826, 370.0
26.488252878189087, 376.0
26.50814414024353, 376.0
26.525466203689575, 374.0
26.54362177848816, 368.0
26.56134533882141, 366.0
26.5795681476593, 362.0
26.598204851150513, 367.0
26.615814208984375, 357.0
26.632689714431763, 358.0
26.65063738822937, 354.0
26.668837785720825, 349.0
26.686388969421387, 343.0
26.70263648033142, 342.0
26.720644235610962, 331.0
26.736896753311157, 340.0
26.753998517990112, 327.0
26.770667791366577, 320.0
26.787213802337646, 317.0
26.802488327026367, 309.0
26.818580150604248, 302.0
26.83387804031372, 297.0
26.85007333755493, 297.0
26.865331172943115, 288.0
26.881109476089478, 283.0
26.900558948516846, 290.0
26.916412115097046, 278.0
26.930930137634277, 282.0
26.946314573287964, 276.0
26.960281133651733, 254.0
26.975523948669434, 265.0
26.989393949508667, 265.0
27.003925800323486, 247.0
27.01754593849182, 252.0
27.03173327445984, 244.0
27.04773712158203, 249.0
27.061842918395996, 257.0
27.076256275177002, 252.0
27.090769052505493, 256.0
27.104355096817017, 254.0
27.11884903907776, 264.0
27.13257360458374, 269.0
27.14857530593872, 264.0
27.16367769241333, 273.0
27.178111791610718, 275.0
27.191741704940796, 267.0
27.205800771713257, 262.0
27.219969749450684, 275.0
27.23492431640625, 286.0
27.248860120773315, 282.0
27.263938903808594, 291.0
27.278355360031128, 291.0
27.29315757751465, 294.0
27.307071447372437, 279.0
27.32176923751831, 299.0
27.335535049438477, 275.0
27.35021662712097, 273.0
27.3644061088562, 276.0
27.379224061965942, 286.0
27.393611192703247, 251.0
27.40778398513794, 252.0
27.421691417694092, 257.0
27.435917854309082, 241.0
27.449249744415283, 236.0
27.462915658950806, 233.0
27.476640224456787, 241.0
27.490320682525635, 235.0
27.503044843673706, 210.0
27.517017602920532, 221.0
27.52991008758545, 215.0
27.54293656349182, 206.0
27.55654811859131, 200.0
27.57287621498108, 225.0
27.585492849349976, 204.0
27.598788022994995, 214.0
27.61113214492798, 216.0
27.62469244003296, 214.0
27.637741804122925, 215.0
27.650779962539673, 217.0
27.663532733917236, 239.0
27.677518367767334, 261.0
27.69063925743103, 256.0
27.705145597457886, 268.0
27.718764543533325, 254.0
27.733521461486816, 261.0
27.747134923934937, 254.0
27.762495756149292, 263.0
27.776509761810303, 260.0
27.791377544403076, 256.0
27.80515193939209, 255.0
27.81888175010681, 229.0
27.83228039741516, 229.0
27.84607434272766, 229.0
27.859063148498535, 233.0
27.871861457824707, 196.0
27.88480019569397, 215.0
27.897770404815674, 198.0
27.91690731048584, 201.0
27.93031597137451, 193.0
27.942026376724243, 183.0
27.95391058921814, 160.0
27.96536684036255, 158.0
27.977073669433594, 147.0
27.988255739212036, 133.0
28.001877784729004, 132.0
28.01247000694275, 131.0
28.023767948150635, 144.0
28.03541922569275, 146.0
28.048442840576172, 173.0
28.060412168502808, 165.0
28.07360315322876, 173.0
28.085833311080933, 192.0
28.099700212478638, 219.0
28.1126651763916, 223.0
28.127339124679565, 265.0
28.140998601913452, 263.0
28.156078338623047, 276.0
28.17015266418457, 253.0
28.185431241989136, 274.0
28.200291872024536, 280.0
28.21600890159607, 302.0
28.23075556755066, 258.0
28.24605655670166, 258.0
28.26041579246521, 251.0
28.274341583251953, 207.0
28.286486625671387, 176.0
28.298755884170532, 177.0
28.311375379562378, 176.0
28.324365854263306, 169.0
28.33568835258484, 148.0
28.348244190216064, 135.0
28.360137701034546, 162.0
28.37308359146118, 173.0
28.385156631469727, 207.0
28.39987850189209, 228.0
28.41283917427063, 215.0
28.426733255386353, 213.0
28.43970012664795, 207.0
28.45366597175598, 217.0
28.467111349105835, 240.0
28.482756853103638, 266.0
28.496586561203003, 267.0
28.511681079864502, 278.0
28.52624750137329, 262.0
28.541937351226807, 256.0
28.556609869003296, 254.0
28.571810722351074, 244.0
28.584972143173218, 215.0
28.598885536193848, 212.0
28.611660480499268, 203.0
28.625109910964966, 188.0
28.637290954589844, 174.0
28.650331020355225, 159.0
28.661944150924683, 142.0
28.674177885055542, 131.0
28.68581986427307, 148.0
28.697359323501587, 131.0
28.708674669265747, 133.0
28.72109317779541, 114.0
28.7321617603302, 123.0
28.745863437652588, 122.0
28.75669503211975, 117.0
28.769439697265625, 113.0
28.781721591949463, 119.0
28.795871257781982, 127.0
28.806618690490723, 127.0
28.819261074066162, 147.0
28.83106279373169, 147.0
28.844340324401855, 173.0
28.856637239456177, 200.0
28.869867086410522, 222.0
28.882641077041626, 221.0
28.896516799926758, 245.0
28.90952491760254, 228.0
28.924965620040894, 230.0
28.941766500473022, 237.0
28.95569348335266, 229.0
28.969127655029297, 263.0
28.98496699333191, 269.0
28.99992847442627, 268.0
29.01582384109497, 284.0
29.029996633529663, 254.0
29.048175811767578, 259.0
29.062150239944458, 247.0
29.07740807533264, 235.0
29.090856075286865, 239.0
29.10541272163391, 230.0
29.119895458221436, 220.0
29.134700775146484, 233.0
29.149417877197266, 236.0
29.16599202156067, 218.0
29.180232048034668, 227.0
29.19473886489868, 240.0
29.208471536636353, 242.0
29.223479986190796, 240.0
29.237648010253906, 245.0
29.252590894699097, 241.0
29.2664737701416, 237.0
29.280993700027466, 223.0
29.29446029663086, 210.0
29.30868124961853, 216.0
29.321898937225342, 219.0
29.336055040359497, 224.0
29.34996008872986, 226.0
29.3647038936615, 214.0
29.377851247787476, 212.0
29.391683340072632, 206.0
29.40460777282715, 190.0
29.418204069137573, 195.0
29.43109917640686, 197.0
29.445863485336304, 197.0
29.45858669281006, 191.0
29.47248864173889, 173.0
29.485151767730713, 171.0
29.498440265655518, 166.0
29.511248350143433, 190.0
29.524378061294556, 160.0
29.536669731140137, 177.0
29.54951000213623, 168.0
29.56148862838745, 144.0
29.573617219924927, 147.0
29.585278034210205, 147.0
29.597902536392212, 162.0
29.610126495361328, 170.0
29.62349843978882, 177.0
29.63580322265625, 178.0
29.649145364761353, 194.0
29.66209387779236, 186.0
29.678200006484985, 187.0
29.69122552871704, 215.0
29.70465350151062, 231.0
29.717533111572266, 240.0
29.73164677619934, 239.0
29.744924783706665, 239.0
29.758066415786743, 227.0
29.77156352996826, 223.0
29.784693479537964, 221.0
29.79730486869812, 232.0
29.810352563858032, 232.0
29.823307275772095, 218.0
29.835867404937744, 216.0
29.84810209274292, 217.0
29.86060118675232, 204.0
29.872090816497803, 191.0
29.88411593437195, 178.0
29.895517349243164, 179.0
29.907271146774292, 171.0
29.918616771697998, 171.0
29.93066644668579, 170.0
29.9455144405365, 179.0
29.958702325820923, 175.0
29.970595836639404, 162.0
29.98243999481201, 165.0
29.9938542842865, 170.0
30.005784034729004, 173.0
30.017151832580566, 171.0
30.030375957489014, 153.0
30.04491925239563, 168.0
30.058894395828247, 166.0
30.07144832611084, 177.0
30.084913969039917, 162.0
30.097541093826294, 151.0
30.110877513885498, 153.0
30.124873399734497, 164.0
30.13888120651245, 166.0
30.15388321876526, 193.0
30.167702436447144, 216.0
30.182343006134033, 230.0
30.197242736816406, 257.0
30.213070154190063, 314.0
30.229400634765625, 310.0
30.24498963356018, 308.0
30.26013994216919, 293.0
30.273924827575684, 242.0
30.28788733482361, 222.0
30.300564289093018, 188.0
30.313888788223267, 197.0
30.326477766036987, 194.0
30.338383674621582, 179.0
30.350255966186523, 166.0
30.362143516540527, 132.0
30.374714374542236, 112.0
30.386064291000366, 103.0
30.398483514785767, 98.0
30.410706758499146, 84.0
30.420942544937134, 59.0
30.431939601898193, 46.0
30.4429452419281, 52.0
30.45398211479187, 70.0
30.464985132217407, 73.0
30.475966215133667, 67.0
30.486992359161377, 69.0
30.498034477233887, 62.0
30.51042866706848, 81.0
30.522067546844482, 95.0
30.5331027507782, 106.0
30.54408311843872, 103.0
30.556100368499756, 105.0
30.567817449569702, 112.0
30.581098794937134, 111.0
30.592102766036987, 109.0
30.603119373321533, 105.0
30.6155264377594, 110.0
30.626110553741455, 114.0
30.637088298797607, 100.0
30.648164749145508, 110.0
30.658962965011597, 96.0
30.66981863975525, 93.0
30.681631803512573, 90.0
30.692039489746094, 88.0
30.703046083450317, 89.0
30.71549654006958, 98.0
30.726035118103027, 85.0
30.736552238464355, 88.0
30.748506546020508, 86.0
30.758012771606445, 81.0
30.769593000411987, 77.0
30.7807457447052, 78.0
30.792469263076782, 84.0
30.803032159805298, 78.0
30.814584732055664, 75.0
30.824026823043823, 76.0
30.835560083389282, 76.0
30.845985651016235, 76.0
30.85758638381958, 74.0
30.866963386535645, 69.0
30.878318071365356, 65.0
30.887959718704224, 61.0
30.897960662841797, 65.0
30.90776228904724, 59.0
30.91794514656067, 62.0
30.927764892578125, 55.0
30.93794083595276, 56.0
30.947756052017212, 53.0
30.960489988327026, 52.0
30.972875356674194, 50.0
30.982501983642578, 47.0
30.994500160217285, 51.0
31.004217624664307, 39.0
31.013857126235962, 38.0
31.02396583557129, 40.0
31.033679962158203, 39.0
31.045778512954712, 34.0
31.054826498031616, 36.0
31.064030647277832, 31.0
31.072978496551514, 36.0
31.08222270011902, 25.0
31.091075897216797, 34.0
