1.4356482028961182, 32.0
1.476954460144043, 34.0
1.5023469924926758, 46.0
1.524158000946045, 52.0
1.5443298816680908, 57.0
1.5645637512207031, 57.0
1.5848591327667236, 58.0
1.6049582958221436, 57.0
1.625270128250122, 57.0
1.6455974578857422, 56.0
1.665651798248291, 57.0
1.6911516189575195, 45.0
1.7112507820129395, 57.0
1.7313783168792725, 57.0
1.7514467239379883, 57.0
1.771611213684082, 57.0
1.7927398681640625, 55.0
1.813758134841919, 54.0
1.8360002040863037, 53.0
1.8566272258758545, 55.0
1.8775160312652588, 55.0
1.8976573944091797, 57.0
1.918543815612793, 55.0
1.9401931762695312, 55.0
1.9605083465576172, 57.0
1.980677843093872, 57.0
2.0018200874328613, 55.0
2.0229156017303467, 54.0
2.04624605178833, 49.0
2.0754005908966064, 37.0
2.096900701522827, 54.0
2.119520425796509, 50.0
2.1409921646118164, 54.0
2.1646666526794434, 49.0
2.185535430908203, 55.0
2.20613956451416, 57.0
2.2262749671936035, 57.0
2.2464706897735596, 57.0
2.267252206802368, 55.0
2.2877840995788574, 56.0
2.307982921600342, 57.0
2.3290576934814453, 54.0
2.348933458328247, 58.0
2.3702468872070312, 54.0
2.3905751705169678, 58.0
2.4109067916870117, 57.0
2.4308438301086426, 58.0
2.4511232376098633, 57.0
2.4737186431884766, 50.0
2.5011324882507324, 40.0
2.5228826999664307, 54.0
2.5425915718078613, 58.0
2.562716007232666, 57.0
2.582503318786621, 58.0
2.604628324508667, 51.0
2.6247494220733643, 58.0
2.64442777633667, 59.0
2.66545033454895, 59.0
2.685427665710449, 58.0
2.7056944370269775, 57.0
2.727463960647583, 52.0
2.7492167949676514, 56.0
2.7699570655822754, 55.0
2.7897822856903076, 58.0
2.8098437786102295, 57.0
2.830862522125244, 54.0
2.850728988647461, 58.0
2.8707544803619385, 57.0
2.8911335468292236, 58.0
2.9109411239624023, 58.0
2.9308555126190186, 58.0
2.9555180072784424, 45.0
2.9752583503723145, 58.0
2.9950006008148193, 58.0
3.0148773193359375, 58.0
3.0343949794769287, 59.0
3.054443120956421, 58.0
3.0741918087005615, 58.0
3.0939157009124756, 59.0
3.11356258392334, 59.0
3.1343131065368652, 58.0
3.1542067527770996, 58.0
3.1745190620422363, 58.0
3.1947684288024902, 57.0
3.215486526489258, 56.0
3.235637903213501, 58.0
3.2552521228790283, 59.0
3.274890422821045, 59.0
3.2943480014801025, 60.0
3.3135664463043213, 60.0
3.3328990936279297, 60.0
3.35227632522583, 59.0
3.3729512691497803, 60.0
3.3922486305236816, 60.0
3.4121193885803223, 60.0
3.4316582679748535, 60.0
3.450866222381592, 60.0
3.4708831310272217, 59.0
3.4901914596557617, 60.0
3.518885612487793, 38.0
3.538738965988159, 59.0
3.5593371391296387, 55.0
3.5786244869232178, 60.0
3.599212169647217, 55.0
3.619067907333374, 59.0
3.63870906829834, 59.0
3.6583597660064697, 60.0
3.6784372329711914, 58.0
3.6980044841766357, 59.0
3.718371629714966, 56.0
3.738179922103882, 59.0
3.758817434310913, 55.0
3.778646230697632, 58.0
3.7984437942504883, 59.0
3.818542242050171, 57.0
3.8386433124542236, 57.0
3.8587419986724854, 58.0
3.878552198410034, 58.0
3.8989360332489014, 58.0
3.919229507446289, 57.0
3.9391403198242188, 58.0
3.959165096282959, 57.0
3.979372501373291, 57.0
3.9991588592529297, 58.0
4.019453525543213, 57.0
4.039120197296143, 58.0
4.0591881275177, 58.0
4.080269813537598, 57.0
4.105345726013184, 44.0
4.12545108795166, 57.0
4.145331382751465, 58.0
4.165587425231934, 58.0
4.1853110790252686, 58.0
4.205453634262085, 57.0
4.2253217697143555, 58.0
4.244954586029053, 59.0
4.264801025390625, 58.0
4.284953832626343, 58.0
4.308605909347534, 47.0
4.32886528968811, 57.0
4.348931550979614, 58.0
4.369048595428467, 57.0
4.388843774795532, 58.0
4.410072088241577, 54.0
4.430340051651001, 57.0
4.450575351715088, 57.0
4.470570802688599, 58.0
4.491426467895508, 55.0
4.512292385101318, 56.0
4.539107322692871, 42.0
4.558908224105835, 58.0
4.578738212585449, 58.0
4.599054336547852, 57.0
4.619462490081787, 56.0
4.639431476593018, 58.0
4.660037517547607, 56.0
4.679863691329956, 58.0
4.703758955001831, 47.0
4.724896192550659, 57.0
4.7450339794158936, 57.0
4.765132188796997, 58.0
4.78509521484375, 57.0
4.805426359176636, 58.0
4.825602293014526, 57.0
4.8455657958984375, 57.0
4.86543345451355, 58.0
4.885674476623535, 57.0
4.906166315078735, 56.0
4.926187753677368, 57.0
4.946502208709717, 56.0
4.9777727127075195, 35.0
5.002333164215088, 47.0
5.023930072784424, 54.0
5.04720139503479, 48.0
5.067990303039551, 55.0
5.088268995285034, 56.0
5.108453273773193, 57.0
5.129173517227173, 55.0
5.149585008621216, 56.0
5.170480966567993, 55.0
5.190611362457275, 57.0
5.210558652877808, 57.0
5.230970144271851, 57.0
5.251456022262573, 56.0
5.271652936935425, 57.0
5.291756629943848, 57.0
5.312312126159668, 56.0
5.3326051235198975, 57.0
5.354118824005127, 53.0
5.3744306564331055, 57.0
5.394506216049194, 57.0
5.41522479057312, 56.0
5.435450792312622, 57.0
5.45572829246521, 57.0
5.4776530265808105, 55.0
5.498090982437134, 56.0
5.519275426864624, 55.0
5.542255878448486, 49.0
5.564405918121338, 52.0
5.584397077560425, 57.0
5.605349540710449, 54.0
5.625442981719971, 57.0
5.64708399772644, 52.0
5.667712688446045, 56.0
5.68846869468689, 55.0
5.708422422409058, 58.0
5.728845834732056, 57.0
5.74966025352478, 58.0
5.769623756408691, 57.0
5.789566993713379, 57.0
5.809422016143799, 58.0
5.82956075668335, 57.0
5.849541664123535, 58.0
5.8694703578948975, 58.0
5.888902187347412, 59.0
5.908970832824707, 58.0
5.928284645080566, 60.0
5.947388172149658, 60.0
5.966359853744507, 61.0
5.985192775726318, 62.0
6.004246234893799, 61.0
6.023766040802002, 63.0
6.044499635696411, 55.0
6.062472343444824, 65.0
6.080255031585693, 66.0
6.097589015960693, 68.0
6.114295244216919, 71.0
6.1315388679504395, 69.0
6.14853572845459, 69.0
6.165136814117432, 72.0
6.180941581726074, 77.0
6.197434425354004, 72.0
6.215082406997681, 68.0
6.230947256088257, 76.0
6.245907545089722, 84.0
6.260342359542847, 85.0
6.2752673625946045, 82.0
6.290320873260498, 80.0
6.305355072021484, 81.0
6.320029973983765, 85.0
6.335104703903198, 81.0
6.350261211395264, 79.0
6.365522146224976, 80.0
6.38046932220459, 82.0
6.394825220108032, 85.0
6.409095764160156, 85.0
6.4239630699157715, 86.0
6.4385364055633545, 83.0
6.453435182571411, 84.0
6.468359470367432, 85.0
6.483208656311035, 82.0
6.4981300830841064, 83.0
6.513330936431885, 79.0
6.528979539871216, 77.0
6.544703483581543, 76.0
6.563434600830078, 64.0
6.580344200134277, 72.0
6.595104455947876, 83.0
6.6107330322265625, 77.0
6.6265833377838135, 79.0
6.641898155212402, 79.0
6.658074378967285, 75.0
6.67382025718689, 77.0
6.691336631774902, 74.0
6.70746374130249, 74.0
6.723675489425659, 73.0
6.740621089935303, 70.0
6.7577385902404785, 71.0
6.7745819091796875, 71.0
6.791977405548096, 67.0
6.8120880126953125, 57.0
6.829897880554199, 66.0
6.847315311431885, 67.0
6.864758014678955, 67.0
6.8823161125183105, 67.0
6.900566339492798, 65.0
6.9180824756622314, 67.0
6.936544418334961, 63.0
6.954054594039917, 67.0
6.972431182861328, 67.0
6.990734577178955, 63.0
7.008472204208374, 66.0
7.026508808135986, 65.0
7.045497179031372, 61.0
7.064339637756348, 65.0
7.082000494003296, 66.0
7.099181890487671, 68.0
7.117161989212036, 66.0
7.135122537612915, 65.0
7.1539177894592285, 61.0
7.170822858810425, 70.0
7.188128471374512, 68.0
7.2052223682403564, 69.0
7.222725868225098, 67.0
7.240784645080566, 64.0
7.259485960006714, 63.0
7.2768168449401855, 68.0
7.294305086135864, 68.0
7.311676740646362, 68.0
7.329186201095581, 68.0
7.346300840377808, 69.0
7.3639326095581055, 67.0
7.381106615066528, 68.0
7.398338317871094, 68.0
7.4156575202941895, 68.0
7.43281102180481, 69.0
7.449836730957031, 69.0
7.467000722885132, 68.0
7.484191179275513, 69.0
7.50120735168457, 69.0
7.518826723098755, 66.0
7.53675389289856, 66.0
7.553742408752441, 69.0
7.57070779800415, 69.0
7.592173099517822, 55.0
7.609225034713745, 71.0
7.625974416732788, 70.0
7.642970323562622, 71.0
7.659707307815552, 70.0
7.676512002944946, 72.0
7.692744731903076, 73.0
7.711530923843384, 63.0
7.729050874710083, 71.0
7.745596408843994, 72.0
7.761610269546509, 74.0
7.7786877155303955, 69.0
7.794828653335571, 73.0
7.811367988586426, 73.0
7.827242374420166, 75.0
7.843282699584961, 77.0
7.859320163726807, 74.0
7.874831438064575, 79.0
7.890167474746704, 78.0
7.906344413757324, 78.0
7.921973705291748, 76.0
7.93932580947876, 74.0
7.955057382583618, 76.0
7.971137046813965, 74.0
7.986486196517944, 78.0
8.002521276473999, 76.0
8.019449710845947, 69.0
8.03501558303833, 79.0
8.051764011383057, 70.0
8.068355321884155, 73.0
8.085176229476929, 73.0
8.100741386413574, 79.0
8.11620831489563, 77.0
8.132245302200317, 75.0
8.146742820739746, 83.0
8.161622285842896, 85.0
8.176666259765625, 80.0
8.19167947769165, 84.0
8.206876993179321, 79.0
8.221360683441162, 84.0
8.23566222190857, 85.0
8.250125169754028, 87.0
8.264632225036621, 87.0
8.279636144638062, 83.0
8.293095588684082, 92.0
8.30829906463623, 86.0
8.32214903831482, 91.0
8.336466789245605, 85.0
8.349894762039185, 92.0
8.36397409439087, 87.0
8.378015756607056, 87.0
8.392120361328125, 87.0
8.405975341796875, 89.0
8.419413566589355, 96.0
8.433207988739014, 90.0
8.446585655212402, 96.0
8.459725618362427, 94.0
8.474103450775146, 86.0
8.486975908279419, 96.0
8.500034809112549, 95.0
8.512842178344727, 97.0
8.526687145233154, 93.0
8.539483308792114, 97.0
8.552721738815308, 95.0
8.565663814544678, 96.0
8.57860541343689, 100.0
8.599252223968506, 55.0
8.614880800247192, 75.0
8.62865662574768, 92.0
8.641520023345947, 99.0
8.654887914657593, 92.0
8.667546272277832, 99.0
8.680906534194946, 93.0
8.693867683410645, 101.0
8.706536293029785, 99.0
8.719223976135254, 103.0
8.732893943786621, 91.0
8.745554208755493, 98.0
8.75888180732727, 93.0
8.771506547927856, 98.0
8.784889936447144, 93.0
8.797416925430298, 102.0
8.809427261352539, 105.0
8.822348833084106, 103.0
8.835885763168335, 91.0
8.84918761253357, 103.0
8.861408472061157, 103.0
8.873802185058594, 106.0
8.886888027191162, 94.0
8.899258136749268, 106.0
8.912341594696045, 98.0
8.92457914352417, 108.0
8.937883138656616, 93.0
8.951883792877197, 91.0
8.963514566421509, 108.0
8.976890087127686, 93.0
8.988428115844727, 111.0
9.003287315368652, 91.0
9.015324831008911, 105.0
9.027429819107056, 109.0
9.040370464324951, 97.0
9.053752899169922, 102.0
9.066889524459839, 94.0
9.07904839515686, 108.0
9.091304540634155, 104.0
9.104884624481201, 93.0
9.116708755493164, 108.0
9.129080295562744, 107.0
9.141347169876099, 102.0
9.153830766677856, 105.0
9.166222095489502, 106.0
9.178603410720825, 107.0
9.191413640975952, 97.0
9.20440149307251, 101.0
9.217514276504517, 95.0
9.23049020767212, 100.0
9.243539810180664, 96.0
9.259181022644043, 81.0
9.272642374038696, 95.0
9.28706431388855, 87.0
9.301269292831421, 86.0
9.314932107925415, 94.0
9.329397678375244, 84.0
9.344775438308716, 78.0
9.35926365852356, 84.0
9.374839782714844, 77.0
9.389956712722778, 80.0
9.406267881393433, 73.0
9.422303438186646, 74.0
9.439319133758545, 71.0
9.455134630203247, 76.0
9.472350120544434, 73.0
9.488528728485107, 74.0
9.505520105361938, 70.0
9.523260831832886, 67.0
9.540570735931396, 68.0
9.55757737159729, 70.0
9.574733257293701, 69.0
9.591684579849243, 70.0
9.613524436950684, 52.0
9.632524251937866, 63.0
9.64969277381897, 70.0
9.666425228118896, 71.0
9.684676170349121, 66.0
9.701744556427002, 70.0
9.718868494033813, 69.0
9.735875129699707, 70.0
9.7537522315979, 65.0
9.771157503128052, 68.0
9.788797855377197, 66.0
9.806208848953247, 68.0
9.824973106384277, 62.0
9.843146800994873, 67.0
9.864401578903198, 56.0
9.882469654083252, 65.0
9.901975393295288, 59.0
9.921988487243652, 58.0
9.940224170684814, 64.0
9.958396673202515, 65.0
9.977079153060913, 62.0
9.996265649795532, 61.0
10.015337467193604, 61.0
10.035404205322266, 59.0
10.055582284927368, 57.0
10.075177669525146, 59.0
10.095948934555054, 58.0
10.1158287525177, 58.0
10.135888814926147, 57.0
10.155663967132568, 58.0
10.177018880844116, 53.0
10.207304239273071, 36.0
10.227263689041138, 56.0
10.25504207611084, 40.0
10.275256872177124, 57.0
10.296319246292114, 56.0
10.316474914550781, 55.0
10.338180541992188, 54.0
10.358821153640747, 55.0
10.379376649856567, 57.0
10.399007797241211, 57.0
10.419844388961792, 57.0
10.439562797546387, 57.0
10.459234237670898, 60.0
10.478132724761963, 59.0
10.498098611831665, 60.0
10.517027616500854, 61.0
10.53815245628357, 58.0
10.55819845199585, 56.0
10.578178882598877, 59.0
10.597309112548828, 59.0
10.616885900497437, 61.0
10.641008615493774, 45.0
10.66050934791565, 61.0
10.679365396499634, 60.0
10.698715686798096, 62.0
10.721834659576416, 48.0
10.741440296173096, 59.0
10.761131525039673, 59.0
10.780048131942749, 61.0
10.798696756362915, 60.0
10.817640781402588, 61.0
10.836846828460693, 59.0
10.856804132461548, 58.0
10.875758171081543, 59.0
10.895102262496948, 60.0
10.914762735366821, 58.0
10.934648752212524, 59.0
10.95413851737976, 58.0
10.973833560943604, 59.0
10.99322509765625, 58.0
11.012946844100952, 58.0
11.031524181365967, 61.0
11.053056716918945, 53.0
11.071468591690063, 61.0
11.09208369255066, 56.0
11.10973572731018, 64.0
11.127243280410767, 67.0
11.143590211868286, 70.0
11.161843299865723, 64.0
11.177916526794434, 71.0
11.194316148757935, 73.0
11.2102530002594, 72.0
11.226655006408691, 72.0
11.24239444732666, 73.0
11.259432554244995, 74.0
11.275303840637207, 73.0
11.291682243347168, 76.0
11.307026624679565, 75.0
11.323399782180786, 72.0
11.337898254394531, 80.0
11.353291273117065, 81.0
11.367586135864258, 81.0
11.382685899734497, 80.0
11.396884202957153, 82.0
11.411820650100708, 81.0
11.426331996917725, 81.0
11.441999197006226, 77.0
11.456938028335571, 81.0
11.471896648406982, 81.0
11.486162185668945, 82.0
11.501889705657959, 82.0
11.51613998413086, 82.0
11.53245735168457, 73.0
11.546934604644775, 80.0
11.563387632369995, 72.0
11.578953504562378, 75.0
11.595660209655762, 71.0
11.611334323883057, 74.0
11.63076114654541, 59.0
11.652684688568115, 50.0
11.670417547225952, 66.0
11.687461614608765, 66.0
11.70516848564148, 66.0
11.722244024276733, 67.0
11.743044376373291, 60.0
11.760934352874756, 64.0
11.778679132461548, 66.0
11.796434164047241, 64.0
11.814731121063232, 64.0
11.832249164581299, 65.0
11.851053476333618, 62.0
11.869637966156006, 61.0
11.888291835784912, 62.0
11.908348321914673, 57.0
11.926957607269287, 62.0
11.944884777069092, 63.0
11.963491916656494, 62.0
11.982662200927734, 60.0
12.00267219543457, 59.0
12.021601676940918, 59.0
12.040401697158813, 62.0
12.059015274047852, 61.0
12.078506708145142, 59.0
12.097076654434204, 61.0
12.115700721740723, 62.0
12.134324073791504, 62.0
12.15335750579834, 61.0
12.17186164855957, 61.0
12.190776586532593, 61.0
12.209805011749268, 60.0
12.229443550109863, 58.0
12.247899055480957, 61.0
12.266950845718384, 61.0
12.285067081451416, 62.0
12.303767442703247, 62.0
12.322382926940918, 61.0
12.340944290161133, 63.0
12.360264301300049, 58.0
12.37923002243042, 61.0
12.397431373596191, 62.0
12.416389465332031, 62.0
12.434658765792847, 61.0
12.453649997711182, 61.0
12.472456693649292, 59.0
12.491124391555786, 62.0
12.509246826171875, 62.0
12.529540300369263, 57.0
12.548402070999146, 61.0
12.568277835845947, 58.0
12.586305856704712, 62.0
12.604786396026611, 63.0
12.623195171356201, 63.0
12.641464233398438, 64.0
12.66280746459961, 51.0
12.682864665985107, 62.0
12.700227975845337, 65.0
12.718327522277832, 64.0
12.735870122909546, 64.0
12.754057884216309, 65.0
12.771735191345215, 64.0
12.789602041244507, 66.0
12.806668519973755, 66.0
12.82538890838623, 62.0
12.842217445373535, 67.0
12.862649917602539, 56.0
12.88034987449646, 67.0
12.897814750671387, 68.0
12.91429877281189, 69.0
12.932065486907959, 66.0
12.948551177978516, 69.0
12.965753555297852, 68.0
12.982486248016357, 68.0
12.999876022338867, 68.0
13.016525268554688, 69.0
13.03367567062378, 69.0
13.05186939239502, 65.0
13.068605899810791, 70.0
13.084572315216064, 72.0
13.101771593093872, 68.0
13.117711544036865, 72.0
13.134358167648315, 72.0
13.15010666847229, 75.0
13.166309356689453, 73.0
13.18258023262024, 70.0
13.199630737304688, 69.0
13.215347290039062, 73.0
13.231939792633057, 71.0
13.24805736541748, 71.0
13.26492691040039, 70.0
13.281136751174927, 71.0
13.297902584075928, 70.0
13.314599990844727, 68.0
13.332150220870972, 67.0
13.350486755371094, 61.0
13.370559453964233, 61.0
13.39156699180603, 63.0
13.41017746925354, 63.0
13.428461790084839, 62.0
13.446810483932495, 64.0
13.464616537094116, 64.0
13.483145236968994, 63.0
13.500710248947144, 64.0
13.51933765411377, 62.0
13.537996053695679, 60.0
13.558038473129272, 58.0
13.576124906539917, 62.0
13.594979286193848, 62.0
13.613778829574585, 61.0
13.63346552848816, 58.0
13.651710033416748, 62.0
13.676587104797363, 45.0
13.695754766464233, 58.0
13.713679552078247, 63.0
13.734379768371582, 55.0
13.752481937408447, 62.0
13.771606683731079, 62.0
13.78980541229248, 62.0
13.807856798171997, 64.0
13.825993776321411, 62.0
13.844923973083496, 63.0
13.862730026245117, 64.0
13.882322311401367, 59.0
13.89995551109314, 64.0
13.91784143447876, 65.0
13.935523509979248, 64.0
13.953435182571411, 65.0
13.970786094665527, 65.0
13.987969160079956, 69.0
14.005148649215698, 66.0
14.022342205047607, 68.0
14.039419174194336, 67.0
14.05816650390625, 65.0
14.074822902679443, 68.0
14.092880964279175, 65.0
14.108952045440674, 72.0
14.125748634338379, 70.0
14.141786098480225, 72.0
14.158450365066528, 71.0
14.17423939704895, 73.0
14.190294981002808, 74.0
14.206515789031982, 71.0
14.223564624786377, 69.0
14.23917531967163, 74.0
14.255671262741089, 73.0
14.271785497665405, 72.0
14.288569450378418, 74.0
14.303869485855103, 76.0
14.32043743133545, 71.0
14.336304426193237, 75.0
14.352430820465088, 74.0
14.368388652801514, 73.0
14.385474920272827, 70.0
14.401314735412598, 73.0
14.417221307754517, 75.0
14.434402227401733, 67.0
14.451591968536377, 70.0
14.467405080795288, 73.0
14.484534740447998, 69.0
14.500570058822632, 72.0
14.517709016799927, 69.0
14.538881778717041, 53.0
14.55557370185852, 71.0
14.572058200836182, 70.0
14.588830471038818, 71.0
14.605725765228271, 68.0
14.627012252807617, 53.0
14.644864559173584, 66.0
14.662152528762817, 66.0
14.679312944412231, 68.0
14.701279878616333, 50.0
14.72014331817627, 66.0
14.737856149673462, 64.0
14.75655460357666, 65.0
14.774315357208252, 64.0
14.792964696884155, 63.0
14.810682535171509, 64.0
14.829307079315186, 62.0
14.84802508354187, 62.0
14.867372751235962, 59.0
14.886379718780518, 59.0
14.905169248580933, 62.0
14.924169778823853, 59.0
14.943433284759521, 60.0
14.96321439743042, 57.0
14.982211351394653, 61.0
15.001152753829956, 59.0
15.022608518600464, 53.0
15.044185161590576, 52.0
15.064386129379272, 57.0
15.083176136016846, 61.0
15.103206396102905, 57.0
15.121915102005005, 60.0
15.141954898834229, 57.0
15.160110235214233, 62.0
15.178885698318481, 62.0
15.197392702102661, 61.0
15.216329097747803, 61.0
15.23479700088501, 61.0
15.254960536956787, 57.0
15.273290157318115, 61.0
15.292282581329346, 61.0
15.31040072441101, 62.0
15.329382419586182, 62.0
15.348055362701416, 60.0
15.367982864379883, 58.0
15.386377811431885, 61.0
15.404923439025879, 63.0
15.437209606170654, 33.0
15.457438707351685, 55.0
15.47561001777649, 62.0
15.494280099868774, 62.0
15.51270604133606, 63.0
15.532429933547974, 58.0
15.551071882247925, 62.0
15.56947112083435, 63.0
15.587687969207764, 62.0
15.605809688568115, 64.0
15.623736143112183, 63.0
15.641876220703125, 64.0
15.659375190734863, 65.0
15.677922010421753, 63.0
15.695509195327759, 64.0
15.71989130973816, 46.0
15.738011837005615, 64.0
15.755269050598145, 66.0
15.772978782653809, 66.0
15.7909677028656, 63.0
15.80913758277893, 66.0
15.82821249961853, 58.0
15.844871997833252, 68.0
15.861866235733032, 69.0
15.877681493759155, 72.0
15.894456386566162, 71.0
15.910627603530884, 70.0
15.927623987197876, 69.0
15.943596839904785, 72.0
15.96158218383789, 65.0
15.976900577545166, 75.0
15.99304723739624, 76.0
16.009096384048462, 74.0
16.024982213974, 77.0
16.039418935775757, 80.0
16.056208848953247, 80.0
16.07081365585327, 80.0
16.086058855056763, 84.0
16.09993600845337, 84.0
16.114426136016846, 85.0
16.129710912704468, 75.0
16.14450478553772, 86.0
16.157423973083496, 92.0
16.17068576812744, 97.0
16.1835675239563, 94.0
16.19684886932373, 95.0
16.209510326385498, 96.0
16.222755908966064, 96.0
16.235225200653076, 96.0
16.249599933624268, 88.0
16.261983156204224, 98.0
16.27483606338501, 101.0
16.286991357803345, 99.0
16.299662351608276, 102.0
16.31173276901245, 100.0
16.32450008392334, 101.0
16.33689546585083, 97.0
16.349745750427246, 100.0
16.36199450492859, 98.0
16.375895023345947, 89.0
16.388441801071167, 98.0
16.401231288909912, 99.0
16.413376808166504, 99.0
16.426724672317505, 96.0
16.43901252746582, 97.0
16.453498601913452, 84.0
16.465697765350342, 99.0
16.478500604629517, 100.0
16.491259813308716, 95.0
16.504432678222656, 97.0
16.516780376434326, 97.0
16.531047344207764, 87.0
16.54423475265503, 89.0
16.558264017105103, 87.0
16.571356058120728, 90.0
16.58492159843445, 93.0
16.59770369529724, 93.0
16.611098766326904, 96.0
16.62384581565857, 94.0
16.63795042037964, 88.0
16.650704860687256, 94.0
16.66355013847351, 100.0
16.676087379455566, 95.0
16.688990831375122, 100.0
16.70046377182007, 106.0
16.712568998336792, 111.0
16.727362871170044, 78.0
16.740545988082886, 109.0
16.750957250595093, 121.0
16.76243281364441, 120.0
16.77499771118164, 96.0
16.787324905395508, 104.0
16.799866199493408, 96.0
16.81389284133911, 88.0
16.827234506607056, 88.0
16.842698574066162, 78.0
16.857840299606323, 77.0
16.874550104141235, 71.0
16.890652894973755, 71.0
16.90804886817932, 67.0
16.92505383491516, 67.0
16.9430673122406, 65.0
16.960349082946777, 65.0
16.978169441223145, 65.0
16.995973587036133, 64.0
17.014183521270752, 64.0
17.031928539276123, 63.0
17.052358150482178, 57.0
17.070229530334473, 63.0
17.088584184646606, 63.0
17.106671571731567, 62.0
17.12486743927002, 64.0
17.14233899116516, 64.0
17.160650730133057, 64.0
17.17808747291565, 65.0
17.196399450302124, 64.0
17.214362621307373, 63.0
17.232381582260132, 65.0
17.25008487701416, 64.0
17.268275022506714, 64.0
17.285670280456543, 65.0
17.30367422103882, 65.0
17.322256565093994, 60.0
17.340403079986572, 64.0
17.357959747314453, 64.0
17.375990867614746, 64.0
17.39318561553955, 66.0
17.41187858581543, 65.0
17.430116891860962, 62.0
17.448148727416992, 64.0
17.465465545654297, 65.0
17.483492851257324, 64.0
17.500593900680542, 66.0
17.518242835998535, 66.0
17.536055088043213, 63.0
17.553489208221436, 67.0
17.570579051971436, 67.0
17.588618755340576, 65.0
17.606374979019165, 63.0
17.62448501586914, 64.0
17.646218061447144, 51.0
17.664624452590942, 64.0
17.682657480239868, 63.0
17.70148539543152, 63.0
17.719570636749268, 62.0
17.74338126182556, 48.0
17.76345658302307, 57.0
17.782394886016846, 63.0
17.80024242401123, 64.0
17.818605422973633, 65.0
17.83702516555786, 63.0
17.855397939682007, 65.0
17.873276710510254, 63.0
17.891836166381836, 65.0
17.910451412200928, 60.0
17.928582191467285, 66.0
17.94608736038208, 65.0
17.963947296142578, 67.0
17.980597734451294, 68.0
17.99898386001587, 64.0
18.01711082458496, 63.0
18.035096645355225, 67.0
18.0555579662323, 54.0
18.07278537750244, 70.0
18.088744640350342, 72.0
18.104835033416748, 77.0
18.11999535560608, 76.0
18.135980367660522, 78.0
18.15142512321472, 75.0
18.16761541366577, 79.0
18.182595014572144, 78.0
18.198326110839844, 79.0
18.213444232940674, 77.0
18.229022979736328, 80.0
18.2441565990448, 76.0
18.25998044013977, 78.0
18.27506947517395, 77.0
18.29053568840027, 80.0
18.305333852767944, 78.0
18.32201600074768, 74.0
18.33697485923767, 77.0
18.352844953536987, 78.0
18.367661714553833, 78.0
18.384326934814453, 76.0
18.39948296546936, 76.0
18.41576600074768, 76.0
18.431381464004517, 75.0
18.44856905937195, 71.0
18.46446180343628, 73.0
18.48153567314148, 72.0
18.497541427612305, 71.0
18.514459133148193, 72.0
18.5307719707489, 71.0
18.54810094833374, 70.0
18.56464123725891, 69.0
18.58201265335083, 70.0
18.59890913963318, 68.0
18.616634368896484, 68.0
18.63306999206543, 69.0
18.650672435760498, 69.0
18.667763233184814, 67.0
18.68507671356201, 70.0
18.701675176620483, 68.0
18.71929097175598, 69.0
18.737769842147827, 61.0
18.763927221298218, 43.0
18.782011032104492, 62.0
18.799148559570312, 69.0
18.816261053085327, 69.0
18.83654546737671, 56.0
18.853797674179077, 66.0
18.870761394500732, 69.0
18.887928247451782, 69.0
18.90522050857544, 70.0
18.921764373779297, 72.0
18.938470125198364, 70.0
18.955111980438232, 71.0
18.97174882888794, 71.0
18.98881244659424, 70.0
19.005749702453613, 70.0
19.022862195968628, 71.0
19.039934635162354, 69.0
19.060971975326538, 57.0
19.077995538711548, 69.0
19.09477424621582, 68.0
19.111881256103516, 68.0
19.128111600875854, 70.0
19.145158052444458, 69.0
19.16131043434143, 71.0
19.178876399993896, 69.0
19.195993661880493, 66.0
19.213348150253296, 70.0
19.22974920272827, 69.0
19.246403694152832, 71.0
19.263154983520508, 68.0
19.28109359741211, 69.0
19.298076391220093, 67.0
19.31511116027832, 69.0
19.33180260658264, 68.0
19.349037647247314, 69.0
19.36566710472107, 69.0
19.38285493850708, 68.0
19.399585723876953, 68.0
19.416749000549316, 68.0
19.433467626571655, 68.0
19.45101308822632, 67.0
19.470747232437134, 56.0
19.488401651382446, 67.0
19.505307912826538, 68.0
19.52207326889038, 70.0
19.539525032043457, 65.0
19.556497812271118, 70.0
19.572633028030396, 71.0
19.58927893638611, 71.0
19.605450868606567, 71.0
19.622713804244995, 72.0
19.638822555541992, 71.0
19.65583872795105, 72.0
19.671987295150757, 71.0
19.688638925552368, 71.0
19.705434560775757, 69.0
19.72169852256775, 73.0
19.740087747573853, 61.0
19.756712436676025, 71.0
19.776204109191895, 57.0
19.794726133346558, 64.0
19.81044316291809, 73.0
19.826778888702393, 73.0
19.84283447265625, 71.0
19.859620571136475, 71.0
19.875627040863037, 71.0
19.891963958740234, 73.0
19.90825653076172, 70.0
19.924376487731934, 73.0
19.940202951431274, 72.0
19.956454515457153, 73.0
19.972536087036133, 71.0
19.989246129989624, 73.0
20.005040884017944, 72.0
20.020617246627808, 76.0
20.036105632781982, 74.0
20.052863121032715, 72.0
20.068272829055786, 75.0
20.08454918861389, 74.0
20.10074019432068, 71.0
20.117610216140747, 72.0
20.13356876373291, 72.0
20.150058269500732, 72.0
20.165726900100708, 73.0
20.18284559249878, 71.0
20.198800802230835, 72.0
20.215967655181885, 71.0
20.23223376274109, 70.0
20.24973225593567, 69.0
20.265475034713745, 73.0
20.28272032737732, 70.0
20.29859495162964, 73.0
20.314699411392212, 76.0
20.32950472831726, 79.0
20.344452142715454, 81.0
20.36064887046814, 70.0
20.377129554748535, 74.0
20.39206552505493, 78.0
20.40936303138733, 69.0
20.425508975982666, 71.0
20.44266128540039, 71.0
20.459296703338623, 68.0
20.47811532020569, 64.0
20.496123552322388, 63.0
20.51468539237976, 64.0
20.532570123672485, 63.0
20.551892042160034, 61.0
20.569854021072388, 63.0
20.590007781982422, 57.0
20.60989999771118, 56.0
20.629252433776855, 62.0
20.649412870407104, 55.0
20.66922092437744, 59.0
20.689676523208618, 54.0
20.70909833908081, 60.0
20.728408098220825, 58.0
20.748404502868652, 59.0
20.768704175949097, 55.0
20.794878244400024, 45.0
20.81629228591919, 57.0
20.835803985595703, 61.0
20.854498386383057, 60.0
20.87437415122986, 59.0
20.893255949020386, 59.0
20.91290044784546, 60.0
20.931583404541016, 60.0
20.95127582550049, 59.0
20.970757484436035, 58.0
20.99038004875183, 61.0
21.009370803833008, 59.0
21.028736352920532, 62.0
21.049219131469727, 54.0
21.06855583190918, 60.0
21.0868136882782, 62.0
21.105825185775757, 63.0
21.12356424331665, 64.0
21.142337799072266, 66.0
21.159493923187256, 66.0
21.177422761917114, 67.0
21.194313049316406, 68.0
21.211692094802856, 70.0
21.227216482162476, 74.0
21.244735956192017, 69.0
21.26062822341919, 72.0
21.277490377426147, 70.0
21.292510747909546, 78.0
21.30673909187317, 86.0
21.31929111480713, 95.0
21.33280897140503, 92.0
21.345762014389038, 91.0
21.359386444091797, 90.0
21.373270750045776, 85.0
21.387077569961548, 89.0
21.39945936203003, 96.0
21.413023710250854, 95.0
21.425852298736572, 92.0
21.441643953323364, 81.0
21.456313371658325, 79.0
21.473426580429077, 72.0
21.489593744277954, 71.0
21.506022214889526, 77.0
21.520960330963135, 78.0
21.53745150566101, 75.0
21.555909633636475, 61.0
21.572042226791382, 74.0
21.589924335479736, 65.0
21.606122493743896, 74.0
21.622215747833252, 74.0
21.63840126991272, 74.0
21.655307292938232, 70.0
21.671271085739136, 75.0
21.687086820602417, 76.0
21.70324397087097, 74.0
21.719061136245728, 78.0
21.73492670059204, 76.0
21.750751495361328, 77.0
21.764915227890015, 88.0
21.77904176712036, 87.0
21.792961597442627, 88.0
21.81191611289978, 61.0
21.826903104782104, 86.0
21.839617490768433, 105.0
21.85289692878723, 94.0
21.8649742603302, 111.0
21.87789011001587, 97.0
21.892093896865845, 89.0
21.90309762954712, 119.0
21.915836811065674, 101.0
21.927072286605835, 115.0
21.939707040786743, 100.0
21.950901746749878, 117.0
21.96381139755249, 99.0
21.976823806762695, 99.0
21.98731279373169, 118.0
21.998674392700195, 115.0
22.011886835098267, 97.0
22.02364706993103, 112.0
22.036221027374268, 104.0
22.049887657165527, 90.0
22.062137603759766, 110.0
22.074541807174683, 101.0
22.086211919784546, 104.0
22.09815239906311, 106.0
22.109462022781372, 108.0
22.119662523269653, 134.0
22.131813049316406, 109.0
22.142032861709595, 130.0
22.15302610397339, 120.0
22.164060592651367, 119.0
22.1765718460083, 101.0
22.187731981277466, 118.0
22.200289011001587, 103.0
22.213894605636597, 92.0
22.22798204421997, 88.0
22.242066621780396, 90.0
22.259501457214355, 67.0
22.27499771118164, 78.0
22.29192352294922, 74.0
22.308589220046997, 72.0
22.32586359977722, 68.0
22.342865467071533, 70.0
22.36023259162903, 68.0
22.37785291671753, 67.0
22.395909547805786, 66.0
22.414035081863403, 65.0
22.431987762451172, 66.0
22.45035457611084, 65.0
22.469147443771362, 62.0
22.48750114440918, 64.0
22.506760120391846, 64.0
22.52591633796692, 61.0
22.545162439346313, 62.0
22.563714504241943, 63.0
22.581767320632935, 64.0
22.59943723678589, 66.0
22.618098974227905, 63.0
22.636244773864746, 64.0
22.654380321502686, 64.0
22.672297477722168, 65.0
22.69032311439514, 65.0
22.708940029144287, 63.0
22.72703266143799, 64.0
22.74747920036316, 56.0
22.76606845855713, 61.0
22.7840678691864, 65.0
22.80232334136963, 64.0
22.829493761062622, 40.0
22.84872555732727, 64.0
22.867648601531982, 64.0
22.885584592819214, 63.0
22.9040424823761, 65.0
22.921616554260254, 64.0
22.93998694419861, 65.0
22.957712650299072, 64.0
22.97649121284485, 65.0
22.994187831878662, 64.0
23.012879610061646, 64.0
23.030579090118408, 64.0
23.052844762802124, 53.0
23.07104802131653, 62.0
23.08973240852356, 64.0
23.108550548553467, 60.0
23.126882553100586, 65.0
23.14435124397278, 65.0
23.16274619102478, 65.0
23.180360078811646, 64.0
23.19960641860962, 62.0
23.21702551841736, 65.0
23.235833644866943, 63.0
23.25452494621277, 61.0
23.27333641052246, 63.0
23.2915141582489, 63.0
23.31602454185486, 47.0
23.334359407424927, 61.0
23.353681087493896, 62.0
23.37144637107849, 64.0
23.390334606170654, 63.0
23.409246683120728, 59.0
23.427804708480835, 65.0
23.445024251937866, 66.0
23.46313214302063, 66.0
23.480311393737793, 66.0
23.498206615447998, 67.0
23.51578664779663, 65.0
23.53358507156372, 68.0
23.55172610282898, 62.0
23.569673538208008, 67.0
23.586599349975586, 68.0
23.604545831680298, 67.0
23.62127685546875, 68.0
23.639048099517822, 68.0
23.658944845199585, 56.0
23.676881074905396, 68.0
23.693764209747314, 68.0
23.71157693862915, 68.0
23.728842735290527, 66.0
23.746472597122192, 68.0
23.763757705688477, 65.0
23.78216791152954, 68.0
23.799052953720093, 67.0
23.817368984222412, 66.0
23.837392807006836, 56.0
23.858056783676147, 56.0
23.87572741508484, 64.0
23.89456582069397, 65.0
23.91260266304016, 63.0
23.93211793899536, 63.0
23.950623989105225, 61.0
23.970235109329224, 62.0
23.988675594329834, 61.0
24.008249521255493, 61.0
24.026418447494507, 62.0
24.048214197158813, 54.0
24.067036628723145, 61.0
24.086655855178833, 62.0
24.105172634124756, 61.0
24.124648094177246, 62.0
24.143367528915405, 60.0
24.162869453430176, 61.0
24.182236909866333, 58.0
24.20223641395569, 60.0
24.220721006393433, 61.0
24.24044895172119, 62.0
24.259533882141113, 59.0
24.28140664100647, 53.0
24.300817251205444, 57.0
24.32042407989502, 61.0
24.339376211166382, 59.0
24.35930824279785, 60.0
24.37843370437622, 58.0
24.39841055870056, 59.0
24.418067693710327, 58.0
24.43818473815918, 59.0
24.457027912139893, 59.0
24.476969957351685, 59.0
24.495463848114014, 61.0
24.514713287353516, 62.0
24.532447814941406, 64.0
24.557223081588745, 46.0
24.574844360351562, 67.0
24.591673135757446, 71.0
24.60934805870056, 70.0
24.62622570991516, 73.0
24.64211368560791, 77.0
24.657485723495483, 79.0
24.672560930252075, 80.0
24.687439918518066, 81.0
24.702813625335693, 78.0
24.71766209602356, 82.0
24.7329363822937, 79.0
24.748099088668823, 80.0
24.764289140701294, 75.0
24.780246019363403, 75.0
24.796974658966064, 71.0
24.81136155128479, 87.0
24.82608699798584, 86.0
24.840237140655518, 87.0
24.8575279712677, 68.0
24.872406005859375, 85.0
24.886295318603516, 94.0
24.898261547088623, 107.0
24.91087508201599, 100.0
24.921555042266846, 123.0
24.933054208755493, 118.0
24.94405436515808, 118.0
24.955071926116943, 119.0
24.9677791595459, 100.0
24.97909164428711, 109.0
24.990004301071167, 123.0
25.00268054008484, 101.0
25.013728857040405, 122.0
25.024910926818848, 122.0
25.037583589553833, 98.0
25.04999613761902, 97.0
25.061031103134155, 117.0
25.07198429107666, 127.0
25.08301591873169, 118.0
25.093978881835938, 126.0
25.10644555091858, 102.0
25.11707377433777, 119.0
25.129523277282715, 102.0
25.1420636177063, 113.0
25.154463529586792, 102.0
25.165127277374268, 116.0
25.17674970626831, 112.0
25.188277006149292, 117.0
25.200936555862427, 99.0
25.21255397796631, 115.0
25.22409200668335, 113.0
25.235503673553467, 122.0
25.24708914756775, 110.0
25.260080337524414, 106.0
25.27280282974243, 98.0
25.284909963607788, 99.0
25.295565128326416, 124.0
25.306726455688477, 122.0
25.31951880455017, 99.0
25.331440210342407, 101.0
25.343034029006958, 110.0
25.353073120117188, 125.0
25.36345386505127, 129.0
25.37336492538452, 126.0
25.383700370788574, 130.0
25.3939151763916, 124.0
25.404155015945435, 131.0
25.41412663459778, 126.0
25.424328327178955, 132.0
25.434197902679443, 128.0
25.444876432418823, 129.0
25.45495843887329, 131.0
25.46529531478882, 133.0
25.47558903694153, 121.0
25.486138105392456, 127.0
25.495851516723633, 131.0
25.50627851486206, 130.0
25.516645908355713, 123.0
25.527230501174927, 124.0
25.53731656074524, 125.0
25.549782752990723, 102.0
25.559818744659424, 126.0
25.570347547531128, 126.0
25.580329418182373, 126.0
25.590851306915283, 127.0
25.6010525226593, 124.0
25.61207342147827, 126.0
25.622359037399292, 123.0
25.632930517196655, 126.0
25.644099235534668, 119.0
25.654926300048828, 122.0
25.665784120559692, 120.0
25.677086353302002, 116.0
25.687679290771484, 117.0
25.698949575424194, 115.0
25.710023880004883, 111.0
25.722318410873413, 109.0
25.73409914970398, 103.0
25.74659538269043, 102.0
25.761696100234985, 77.0
25.775107860565186, 98.0
25.788091897964478, 91.0
25.8032169342041, 83.0
25.817021369934082, 86.0
25.83245873451233, 83.0
25.84657120704651, 83.0
25.87851619720459, 34.0
25.899919986724854, 59.0
25.916329383850098, 76.0
25.932517290115356, 71.0
25.94969153404236, 71.0
25.96673583984375, 66.0
25.985077619552612, 66.0
26.00368571281433, 63.0
26.022002935409546, 66.0
26.03969979286194, 64.0
26.05902671813965, 62.0
26.077197074890137, 62.0
26.096529722213745, 62.0
26.114610195159912, 62.0
26.134076595306396, 62.0
26.15252947807312, 61.0
26.171403884887695, 63.0
26.190495014190674, 62.0
26.209510564804077, 62.0
26.228333711624146, 60.0
26.247888803482056, 61.0
26.266193389892578, 62.0
26.285133123397827, 64.0
26.30337142944336, 62.0
26.322438955307007, 62.0
26.340522527694702, 63.0
26.359270811080933, 64.0
26.377144813537598, 63.0
26.395856380462646, 64.0
26.414716958999634, 60.0
26.433629035949707, 64.0
26.452037811279297, 61.0
26.47052764892578, 65.0
26.488266229629517, 64.0
26.508157968521118, 62.0
26.52547860145569, 65.0
26.543633460998535, 66.0
26.561357498168945, 63.0
26.579580307006836, 67.0
26.598217964172363, 61.0
26.615827560424805, 68.0
26.632702350616455, 68.0
26.650649309158325, 69.0
26.668847799301147, 62.0
26.686401844024658, 70.0
26.70264744758606, 70.0
26.720656394958496, 66.0
26.73690962791443, 70.0
26.75401020050049, 73.0
26.770679235458374, 68.0
26.78722620010376, 75.0
26.802500247955322, 75.0
26.818591117858887, 78.0
26.833890914916992, 76.0
26.850086450576782, 77.0
26.865341424942017, 76.0
26.88112235069275, 80.0
26.900572061538696, 58.0
26.916424036026, 77.0
26.930944681167603, 80.0
26.94632649421692, 82.0
26.960294485092163, 84.0
26.97553563117981, 83.0
26.989405632019043, 85.0
27.003937482833862, 87.0
27.017558336257935, 86.0
27.03174662590027, 90.0
27.04774808883667, 73.0
27.061856508255005, 87.0
27.076267957687378, 82.0
27.090782403945923, 84.0
27.104367971420288, 87.0
27.11886239051819, 84.0
27.13258719444275, 86.0
27.14858889579773, 74.0
27.163689613342285, 79.0
27.17812418937683, 84.0
27.191753387451172, 86.0
27.20581340789795, 87.0
27.219981908798218, 83.0
27.2349374294281, 80.0
27.248872995376587, 84.0
27.263951539993286, 79.0
27.278368949890137, 82.0
27.293174505233765, 82.0
27.30708408355713, 84.0
27.321781158447266, 82.0
27.33554697036743, 85.0
27.35023045539856, 82.0
27.364418983459473, 82.0
27.379237174987793, 84.0
27.39362382888794, 82.0
27.407804489135742, 86.0
27.42170262336731, 85.0
27.4359290599823, 86.0
27.449262619018555, 89.0
27.462928533554077, 90.0
27.4766526222229, 86.0
27.490331172943115, 90.0
27.503056526184082, 94.0
27.517029523849487, 92.0
27.529922485351562, 91.0
27.542948961257935, 96.0
27.556560277938843, 87.0
27.57288932800293, 73.0
27.58550477027893, 95.0
27.598807096481323, 98.0
27.611144304275513, 97.0
27.624704599380493, 96.0
27.63775396347046, 91.0
27.65079951286316, 96.0
27.663544416427612, 93.0
27.67753005027771, 92.0
27.690651655197144, 91.0
27.705157995224, 89.0
27.7187762260437, 87.0
27.73353409767151, 86.0
27.74714708328247, 87.0
27.76250696182251, 81.0
27.776522159576416, 83.0
27.79138994216919, 82.0
27.805163860321045, 85.0
27.818893909454346, 89.0
27.83229398727417, 88.0
27.846086740493774, 89.0
27.85907506942749, 91.0
27.871873140335083, 97.0
27.884811401367188, 92.0
27.897782802581787, 97.0
27.916921615600586, 58.0
27.9303297996521, 93.0
27.9420382976532, 103.0
27.953922986984253, 107.0
27.965378999710083, 106.0
27.97708535194397, 111.0
27.988267183303833, 111.0
28.001890182495117, 95.0
28.012482404708862, 117.0
28.02378010749817, 115.0
28.035431623458862, 105.0
28.048455238342285, 96.0
28.060423612594604, 101.0
28.07361626625061, 95.0
28.08584499359131, 98.0
28.09971308708191, 96.0
28.11267876625061, 92.0
28.127352714538574, 88.0
28.141010761260986, 87.0
28.156091690063477, 82.0
28.17016291618347, 83.0
28.185442447662354, 82.0
28.200304985046387, 78.0
28.216021060943604, 79.0
28.23076868057251, 78.0
28.246068716049194, 83.0
28.260427951812744, 83.0
28.274353981018066, 93.0
28.286499500274658, 99.0
28.298767805099487, 104.0
28.311387538909912, 95.0
28.32437777519226, 101.0
28.335699558258057, 107.0
28.3482563495636, 107.0
28.36015009880066, 101.0
28.373095750808716, 106.0
28.38525128364563, 99.0
28.399889707565308, 87.0
28.412850618362427, 92.0
28.42674493789673, 93.0
28.439725399017334, 91.0
28.45367693901062, 93.0
28.467121601104736, 87.0
28.48276925086975, 80.0
28.496598720550537, 84.0
28.511692762374878, 83.0
28.526258945465088, 81.0
28.54194951057434, 79.0
28.55662202835083, 79.0
28.571823835372925, 85.0
28.584983825683594, 90.0
28.598897457122803, 92.0
28.611672163009644, 92.0
28.625121593475342, 97.0
28.63730216026306, 98.0
28.6503427028656, 101.0
28.661956310272217, 105.0
28.674189805984497, 111.0
28.685831308364868, 104.0
28.697370290756226, 111.0
28.70868682861328, 108.0
28.721104860305786, 108.0
28.73217272758484, 110.0
28.74587392807007, 94.0
28.756706476211548, 114.0
28.76944875717163, 98.0
28.7817325592041, 98.0
28.79588222503662, 94.0
28.806631088256836, 115.0
28.819273710250854, 105.0
28.831073999404907, 103.0
28.84435224533081, 98.0
28.856648445129395, 97.0
28.86987805366516, 94.0
28.882657766342163, 93.0
28.896528720855713, 92.0
28.90953803062439, 90.0
28.924978256225586, 81.0
28.94177770614624, 73.0
28.955705165863037, 93.0
28.969138860702515, 87.0
28.984978675842285, 79.0
28.999940872192383, 78.0
29.015836477279663, 81.0
29.03000807762146, 83.0
29.0481858253479, 66.0
29.06216311454773, 84.0
29.07742166519165, 83.0
29.090867280960083, 88.0
29.105424880981445, 88.0
29.11990737915039, 81.0
29.13471245765686, 86.0
29.14943289756775, 80.0
29.166005611419678, 73.0
29.180243730545044, 83.0
29.19475030899048, 84.0
29.208483695983887, 85.0
29.22349238395691, 85.0
29.23766016960144, 83.0
29.252602577209473, 82.0
29.266485929489136, 85.0
29.281005859375, 88.0
29.294472217559814, 88.0
29.308692932128906, 90.0
29.321910858154297, 89.0
29.336068153381348, 91.0
29.34997296333313, 84.0
29.364715099334717, 86.0
29.37786316871643, 91.0
29.391695976257324, 89.0
29.40462017059326, 92.0
29.41821551322937, 95.0
29.431111097335815, 93.0
29.445874452590942, 85.0
29.458598613739014, 94.0
29.472500801086426, 93.0
29.485163927078247, 93.0
29.49845266342163, 98.0
29.511260747909546, 93.0
29.52439022064209, 99.0
29.536681652069092, 97.0
29.549521923065186, 103.0
29.561500310897827, 99.0
29.573629140853882, 105.0
29.585290670394897, 104.0
29.597914218902588, 100.0
29.61015295982361, 98.0
29.62351131439209, 98.0
29.635814666748047, 97.0
29.64915704727173, 96.0
29.662106037139893, 93.0
29.67821216583252, 77.0
29.691237926483154, 91.0
29.70466423034668, 97.0
29.717545747756958, 92.0
29.73166036605835, 90.0
29.74493670463562, 89.0
29.758079528808594, 95.0
29.771573781967163, 89.0
29.78470516204834, 95.0
29.797321557998657, 94.0
29.810364484786987, 96.0
29.823320150375366, 92.0
29.83588171005249, 100.0
29.84811496734619, 99.0
29.860613346099854, 100.0
29.87210178375244, 106.0
29.884128093719482, 105.0
29.895527839660645, 106.0
29.907284021377563, 109.0
29.918627738952637, 107.0
29.930678129196167, 106.0
29.945528268814087, 78.0
29.958715438842773, 98.0
29.97060775756836, 104.0
29.98245143890381, 108.0
29.993865728378296, 106.0
30.00580596923828, 108.0
30.01716423034668, 108.0
30.030388116836548, 99.0
30.044930696487427, 79.0
30.058906316757202, 106.0
30.071459770202637, 101.0
30.084927320480347, 92.0
30.097553730010986, 105.0
30.110889196395874, 94.0
30.124886512756348, 91.0
30.138893842697144, 89.0
30.153895139694214, 89.0
30.167715072631836, 90.0
30.18235969543457, 84.0
30.197255611419678, 82.0
30.21308159828186, 75.0
30.229413986206055, 73.0
30.24500060081482, 77.0
30.260151863098145, 80.0
30.27393627166748, 90.0
30.287899017333984, 88.0
30.300576210021973, 101.0
30.313902139663696, 95.0
30.32648992538452, 100.0
30.33839511871338, 110.0
30.350268125534058, 109.0
30.362155199050903, 115.0
30.374724626541138, 101.0
30.386075735092163, 116.0
30.398494482040405, 103.0
30.410717725753784, 110.0
30.420954704284668, 122.0
30.43195152282715, 128.0
30.442957162857056, 122.0
30.453994274139404, 125.0
30.464997053146362, 121.0
30.47597885131836, 124.0
30.487004041671753, 119.0
30.49804711341858, 123.0
30.51044011116028, 105.0
30.5220787525177, 118.0
30.53312110900879, 119.0
30.54409384727478, 119.0
30.556114196777344, 119.0
30.567829847335815, 121.0
30.581111907958984, 96.0
30.592114210128784, 118.0
30.60313081741333, 126.0
30.615537405014038, 102.0
30.62612295150757, 118.0
30.6371009349823, 119.0
30.648176908493042, 126.0
30.658974409103394, 122.0
30.669830322265625, 129.0
30.681642293930054, 108.0
30.69205093383789, 121.0
30.70305824279785, 118.0
30.71550726890564, 104.0
30.726047039031982, 124.0
30.736562967300415, 134.0
30.748517274856567, 105.0
30.758024215698242, 133.0
30.769603490829468, 111.0
30.78075671195984, 110.0
30.79247736930847, 108.0
30.803044080734253, 120.0
30.814594507217407, 111.0
30.824037313461304, 135.0
30.835569858551025, 111.0
30.846070766448975, 120.0
30.85759711265564, 110.0
30.86697483062744, 135.0
30.87832808494568, 112.0
30.8879714012146, 132.0
30.897972583770752, 132.0
30.907772302627563, 145.0
30.917956113815308, 131.0
30.927775859832764, 144.0
30.937951803207397, 132.0
30.94776678085327, 144.0
30.960503578186035, 97.0
30.972892999649048, 97.0
30.982513904571533, 141.0
30.994511127471924, 114.0
31.00422954559326, 143.0
31.013869047164917, 147.0
31.023977518081665, 130.0
31.033692359924316, 130.0
31.045801162719727, 109.0
31.05483841896057, 142.0
31.064042568206787, 149.0
31.072990894317627, 144.0
31.082233905792236, 148.0
31.091086626052856, 145.0
