2.1229631900787354, 650.0
2.149622678756714, 656.0
2.181145191192627, 664.0
2.2082438468933105, 654.0
2.2338621616363525, 644.0
2.260204315185547, 649.0
2.287238121032715, 658.0
2.3130784034729004, 631.0
2.339029312133789, 649.0
2.3650360107421875, 649.0
2.391376256942749, 670.0
2.420013666152954, 655.0
2.4468812942504883, 662.0
2.4750137329101562, 701.0
2.502077341079712, 673.0
2.529576063156128, 703.0
2.5554521083831787, 647.0
2.583063840866089, 665.0
2.6097168922424316, 654.0
2.636197328567505, 662.0
2.662886381149292, 648.0
2.6909542083740234, 671.0
2.7179901599884033, 660.0
2.745488166809082, 686.0
2.7722573280334473, 659.0
2.7982640266418457, 661.0
2.82399320602417, 649.0
2.848708391189575, 628.0
2.874228000640869, 657.0
2.9040369987487793, 629.0
2.9302151203155518, 646.0
2.9567952156066895, 631.0
2.9821829795837402, 640.0
3.007899761199951, 626.0
3.0326602458953857, 622.0
3.0583913326263428, 635.0
3.084411859512329, 633.0
3.1101250648498535, 627.0
3.1360981464385986, 619.0
3.1614110469818115, 607.0
3.186025857925415, 613.0
3.2114930152893066, 617.0
3.234691619873047, 579.0
3.2590363025665283, 607.0
3.2832391262054443, 593.0
3.307637929916382, 595.0
3.331974744796753, 606.0
3.3593125343322754, 587.0
3.3833024501800537, 589.0
3.406433343887329, 571.0
3.432419538497925, 590.0
3.4561944007873535, 564.0
3.4793524742126465, 565.0
3.5024425983428955, 555.0
3.5255126953125, 557.0
3.5495057106018066, 568.0
3.57475209236145, 569.0
3.598757743835449, 546.0
3.6294753551483154, 560.0
3.6555378437042236, 568.0
3.6789095401763916, 532.0
3.70181941986084, 577.0
3.724876880645752, 535.0
3.7464821338653564, 538.0
3.769818067550659, 568.0
3.791114568710327, 537.0
3.813138484954834, 535.0
3.8353583812713623, 529.0
3.858046770095825, 535.0
3.8797240257263184, 522.0
3.90533185005188, 524.0
3.9305083751678467, 528.0
3.95277738571167, 545.0
3.977576732635498, 526.0
4.000482797622681, 524.0
4.023057699203491, 509.0
4.043833255767822, 515.0
4.063956022262573, 511.0
4.084641933441162, 506.0
4.105497598648071, 497.0
4.12585711479187, 493.0
4.146036624908447, 504.0
4.166322469711304, 504.0
4.187256574630737, 495.0
4.208154916763306, 506.0
4.228849411010742, 514.0
4.248785495758057, 505.0
4.268764495849609, 486.0
4.288824796676636, 484.0
4.311596632003784, 486.0
4.332112550735474, 476.0
4.3514485359191895, 487.0
4.371272087097168, 473.0
4.390088796615601, 457.0
4.409723520278931, 471.0
4.429245233535767, 461.0
4.448004722595215, 453.0
4.466825485229492, 472.0
4.485498905181885, 471.0
4.5043275356292725, 456.0
4.522584676742554, 451.0
4.540874242782593, 458.0
4.562217950820923, 462.0
4.582045078277588, 463.0
4.602130651473999, 500.0
4.621100425720215, 477.0
4.640319585800171, 493.0
4.6594178676605225, 486.0
4.678738355636597, 499.0
4.698211193084717, 499.0
4.717880010604858, 523.0
4.7371602058410645, 530.0
4.757704019546509, 548.0
4.7772438526153564, 528.0
4.796522855758667, 513.0
4.8162500858306885, 527.0
4.836834192276001, 519.0
4.857010841369629, 544.0
4.8819053173065186, 549.0
4.9020607471466064, 554.0
4.929457902908325, 532.0
4.950870990753174, 554.0
4.971464157104492, 543.0
4.992848873138428, 571.0
5.01482081413269, 594.0
5.036809682846069, 590.0
5.059093713760376, 620.0
5.081564664840698, 581.0
5.102928876876831, 568.0
5.125011682510376, 589.0
5.146808862686157, 590.0
5.1691882610321045, 557.0
5.1927056312561035, 607.0
5.215125322341919, 581.0
5.2375242710113525, 566.0
5.2606565952301025, 576.0
5.284111738204956, 559.0
5.3074750900268555, 560.0
5.330613851547241, 566.0
5.354315280914307, 569.0
5.377561092376709, 547.0
5.400851249694824, 548.0
5.42486310005188, 546.0
5.4491167068481445, 554.0
5.475622892379761, 560.0
5.4984753131866455, 531.0
5.523547410964966, 536.0
5.546648740768433, 520.0
5.570882797241211, 547.0
5.594192981719971, 502.0
5.617097854614258, 525.0
5.640072584152222, 525.0
5.662952423095703, 516.0
5.684920787811279, 495.0
5.70740532875061, 508.0
5.730754375457764, 512.0
5.753535985946655, 500.0
5.776415824890137, 513.0
5.798110246658325, 470.0
5.820943832397461, 502.0
5.842547416687012, 485.0
5.865150451660156, 477.0
5.887372016906738, 493.0
5.908687353134155, 479.0
5.93005108833313, 481.0
5.955178737640381, 461.0
5.975843667984009, 459.0
5.997197389602661, 461.0
6.018483877182007, 481.0
6.0387184619903564, 457.0
6.059481382369995, 451.0
6.082522630691528, 434.0
6.103023052215576, 461.0
6.122813940048218, 437.0
6.142910957336426, 446.0
6.16255259513855, 415.0
6.182034969329834, 437.0
6.2013914585113525, 427.0
6.219873905181885, 405.0
6.2387590408325195, 426.0
6.257508039474487, 429.0
6.276624441146851, 432.0
6.29548978805542, 423.0
6.31425666809082, 435.0
6.332355737686157, 435.0
6.3503642082214355, 426.0
6.368489503860474, 429.0
6.386890888214111, 420.0
6.404845952987671, 439.0
6.425097942352295, 449.0
6.442803859710693, 416.0
6.4607508182525635, 408.0
6.478135108947754, 402.0
6.495161294937134, 400.0
6.514459609985352, 399.0
6.531374931335449, 404.0
6.548468589782715, 412.0
6.5654497146606445, 405.0
6.582301616668701, 402.0
6.599218845367432, 384.0
6.616124629974365, 395.0
6.632885932922363, 391.0
6.6498870849609375, 384.0
6.667632102966309, 391.0
6.685159683227539, 395.0
6.702974796295166, 410.0
6.720400094985962, 391.0
6.739105701446533, 416.0
6.757911443710327, 438.0
6.776328802108765, 446.0
6.794749736785889, 450.0
6.813847303390503, 468.0
6.832576036453247, 478.0
6.850665330886841, 438.0
6.868670701980591, 449.0
6.88684344291687, 437.0
6.904659748077393, 432.0
6.921933889389038, 425.0
6.939115047454834, 417.0
6.961779594421387, 404.0
6.981846570968628, 399.0
6.997604131698608, 379.0
7.013570785522461, 373.0
7.027984619140625, 352.0
7.043439149856567, 358.0
7.05766487121582, 343.0
7.073069334030151, 347.0
7.0872790813446045, 333.0
7.101666212081909, 321.0
7.114770174026489, 310.0
7.129677057266235, 299.0
7.142221450805664, 281.0
7.15607213973999, 291.0
7.168421506881714, 271.0
7.1814799308776855, 259.0
7.194035053253174, 251.0
7.206982135772705, 250.0
7.219722509384155, 250.0
7.232427358627319, 245.0
7.244426488876343, 236.0
7.257045745849609, 256.0
7.268552541732788, 223.0
7.28075647354126, 215.0
7.291984558105469, 207.0
7.3041393756866455, 217.0
7.315335273742676, 204.0
7.328209400177002, 211.0
7.339860439300537, 232.0
7.352508783340454, 236.0
7.364173173904419, 246.0
7.37680196762085, 247.0
7.388940811157227, 247.0
7.402141571044922, 268.0
7.417418479919434, 254.0
7.430774927139282, 256.0
7.443461656570435, 262.0
7.457510232925415, 261.0
7.470249891281128, 266.0
7.484245538711548, 271.0
7.497037410736084, 264.0
7.5110297203063965, 285.0
7.524921894073486, 285.0
7.539815425872803, 290.0
7.554169178009033, 295.0
7.569502830505371, 296.0
7.583754539489746, 313.0
7.599101543426514, 303.0
7.612768888473511, 293.0
7.627989768981934, 305.0
7.641024351119995, 285.0
7.655592679977417, 321.0
7.669026851654053, 302.0
7.683214426040649, 301.0
7.697015762329102, 310.0
7.711920261383057, 319.0
7.726698875427246, 323.0
7.7420289516448975, 323.0
7.755560874938965, 331.0
7.7696521282196045, 312.0
7.783073902130127, 307.0
7.7971086502075195, 306.0
7.8099164962768555, 288.0
7.823887348175049, 287.0
7.8369057178497314, 291.0
7.851341485977173, 272.0
7.863490343093872, 251.0
7.8770012855529785, 255.0
7.889724016189575, 242.0
7.903191566467285, 261.0
7.915621757507324, 244.0
7.928637742996216, 245.0
7.941447019577026, 259.0
7.955346345901489, 263.0
7.9703874588012695, 262.0
7.984952926635742, 257.0
7.99751091003418, 261.0
8.011067867279053, 259.0
8.023831605911255, 240.0
8.037339448928833, 256.0
8.050407648086548, 273.0
8.0641348361969, 264.0
8.076961517333984, 274.0
8.09149980545044, 274.0
8.103810787200928, 254.0
8.11709451675415, 280.0
8.129732847213745, 261.0
8.14290738105774, 252.0
8.155066013336182, 255.0
8.168380737304688, 263.0
8.180631637573242, 257.0
8.193857192993164, 244.0
8.20726490020752, 266.0
8.220093727111816, 256.0
8.233931541442871, 259.0
8.246930837631226, 247.0
8.259015798568726, 258.0
8.271912813186646, 254.0
8.283915519714355, 244.0
8.296062707901001, 232.0
8.307812213897705, 227.0
8.319860696792603, 242.0
8.331183910369873, 221.0
8.343426704406738, 233.0
8.356020212173462, 251.0
8.368574619293213, 234.0
8.380030155181885, 210.0
8.392428398132324, 213.0
8.404274702072144, 231.0
8.418362855911255, 214.0
8.430668115615845, 219.0
8.444214820861816, 208.0
8.456621885299683, 209.0
8.468475818634033, 223.0
8.480966806411743, 224.0
8.494917392730713, 226.0
8.508755683898926, 225.0
8.52187991142273, 235.0
8.534698486328125, 235.0
8.547884464263916, 220.0
8.560311555862427, 214.0
8.572272539138794, 215.0
8.584664106369019, 215.0
8.597317695617676, 220.0
8.60994815826416, 221.0
8.622799158096313, 215.0
8.63508415222168, 216.0
8.647953748703003, 215.0
8.660308599472046, 212.0
8.672384977340698, 242.0
8.684696197509766, 210.0
8.696335792541504, 204.0
8.70870304107666, 222.0
8.720443725585938, 213.0
8.732634544372559, 218.0
8.744378089904785, 218.0
8.756413221359253, 222.0
8.76871943473816, 236.0
8.78081727027893, 231.0
8.79261302947998, 236.0
8.805240869522095, 224.0
8.820761680603027, 249.0
8.832212686538696, 229.0
8.84470248222351, 247.0
8.856234550476074, 235.0
8.868756532669067, 242.0
8.880403280258179, 246.0
8.892245769500732, 242.0
8.904556512832642, 252.0
8.9163818359375, 259.0
8.928306579589844, 236.0
8.940372228622437, 253.0
8.953348398208618, 255.0
8.9655179977417, 255.0
8.97826600074768, 260.0
8.993788719177246, 240.0
9.00654649734497, 237.0
9.019751787185669, 223.0
9.031958818435669, 236.0
9.043487310409546, 223.0
9.05546259880066, 236.0
9.067795038223267, 233.0
9.079784870147705, 222.0
9.093037366867065, 216.0
9.105530500411987, 217.0
9.117365837097168, 205.0
9.129382371902466, 198.0
9.141379833221436, 195.0
9.152778387069702, 198.0
9.163567066192627, 181.0
9.175382137298584, 177.0
9.188366174697876, 182.0
9.199580192565918, 186.0
9.211379289627075, 171.0
9.222546100616455, 165.0
9.234376192092896, 164.0
9.24637508392334, 158.0
9.25738787651062, 151.0
9.26876449584961, 160.0
9.279620170593262, 141.0
9.290952444076538, 136.0
9.301928758621216, 142.0
9.313000917434692, 144.0
9.323857545852661, 131.0
9.334798097610474, 151.0
9.34585165977478, 146.0
9.356492519378662, 135.0
9.368374347686768, 155.0
9.379871845245361, 142.0
9.390937566757202, 150.0
9.402015209197998, 155.0
9.412903785705566, 150.0
9.425368547439575, 143.0
9.435793399810791, 148.0
9.446521997451782, 145.0
9.457690954208374, 137.0
9.468311548233032, 145.0
9.478866338729858, 158.0
9.489873170852661, 152.0
9.501372337341309, 148.0
9.512855052947998, 154.0
9.52436637878418, 148.0
9.5353262424469, 158.0
9.545855522155762, 150.0
9.556703090667725, 155.0
9.567648887634277, 156.0
9.57877254486084, 160.0
9.590379238128662, 151.0
9.603813409805298, 153.0
9.614881992340088, 161.0
9.626197099685669, 179.0
9.636921882629395, 173.0
9.649014234542847, 191.0
9.661250829696655, 182.0
9.67276382446289, 192.0
9.684096574783325, 188.0
9.696118593215942, 196.0
9.708248853683472, 202.0
9.720124959945679, 205.0
9.732181549072266, 204.0
9.744611978530884, 214.0
9.757724046707153, 241.0
9.77045750617981, 247.0
9.783903121948242, 241.0
9.798171520233154, 263.0
9.811304569244385, 269.0
9.825876474380493, 280.0
9.83970594406128, 299.0
9.854050397872925, 301.0
9.874875545501709, 300.0
9.8960542678833, 317.0
9.913896083831787, 347.0
9.930195808410645, 367.0
9.946424007415771, 365.0
9.964967966079712, 386.0
9.982688903808594, 402.0
10.010045051574707, 410.0
10.028701782226562, 425.0
10.046883583068848, 397.0
10.064838409423828, 420.0
10.083522081375122, 431.0
10.101746320724487, 414.0
10.119633197784424, 426.0
10.137163639068604, 405.0
10.15406608581543, 393.0
10.170357704162598, 380.0
10.186739444732666, 367.0
10.203996658325195, 369.0
10.221832752227783, 377.0
10.238870620727539, 379.0
10.25549054145813, 380.0
10.272526502609253, 382.0
10.290097713470459, 402.0
10.308107852935791, 416.0
10.325867891311646, 423.0
10.344587564468384, 451.0
10.36339783668518, 447.0
10.383814811706543, 494.0
10.40425443649292, 493.0
10.425356149673462, 475.0
10.447042465209961, 487.0
10.467630863189697, 497.0
10.488255739212036, 476.0
10.508635520935059, 488.0
10.529105424880981, 474.0
10.549697399139404, 504.0
10.569512367248535, 466.0
10.5896737575531, 476.0
10.610016822814941, 467.0
10.629186391830444, 441.0
10.649550437927246, 466.0
10.66958236694336, 474.0
10.69090461730957, 470.0
10.7103111743927, 463.0
10.729830026626587, 462.0
10.748763084411621, 441.0
10.767534971237183, 436.0
10.786380052566528, 435.0
10.805927038192749, 441.0
10.82442855834961, 431.0
10.843438148498535, 453.0
10.862060308456421, 459.0
10.880663871765137, 449.0
10.900064468383789, 434.0
10.919858455657959, 459.0
10.940329790115356, 487.0
10.960572481155396, 473.0
10.98003888130188, 459.0
11.000653982162476, 482.0
11.027886390686035, 497.0
11.048709392547607, 484.0
11.069098711013794, 498.0
11.09006929397583, 507.0
11.110511064529419, 501.0
11.13071322441101, 488.0
11.150362968444824, 443.0
11.17049765586853, 452.0
11.190780878067017, 441.0
11.209010601043701, 420.0
11.226508378982544, 400.0
11.24402141571045, 385.0
11.260043859481812, 350.0
11.276987314224243, 360.0
11.293384552001953, 320.0
11.308051586151123, 300.0
11.322441816329956, 302.0
11.336973905563354, 283.0
11.350597620010376, 284.0
11.364537477493286, 274.0
11.377893447875977, 226.0
11.390458583831787, 219.0
11.404384851455688, 226.0
11.419643640518188, 224.0
11.432172775268555, 236.0
11.444854021072388, 239.0
11.45755386352539, 237.0
11.46939992904663, 226.0
11.481399536132812, 224.0
11.49351167678833, 218.0
11.505904912948608, 224.0
11.518537521362305, 219.0
11.530403137207031, 225.0
11.542602300643921, 238.0
11.554620027542114, 230.0
11.566670894622803, 246.0
11.579021215438843, 251.0
11.592013835906982, 251.0
11.60512375831604, 265.0
11.617905378341675, 279.0
11.631200313568115, 267.0
11.64427399635315, 257.0
11.656439304351807, 247.0
11.669557571411133, 246.0
11.681870698928833, 257.0
11.694354057312012, 263.0
11.707103490829468, 258.0
11.720021486282349, 260.0
11.732502937316895, 259.0
11.746079206466675, 261.0
11.759132385253906, 278.0
11.773780584335327, 297.0
11.787658929824829, 306.0
11.801822900772095, 301.0
11.815269947052002, 303.0
11.830859899520874, 318.0
11.844985723495483, 298.0
11.858778953552246, 300.0
11.8725905418396, 315.0
11.887132167816162, 338.0
11.90204668045044, 333.0
11.916413068771362, 336.0
11.931162595748901, 342.0
11.946419477462769, 375.0
11.96168303489685, 366.0
11.977382898330688, 357.0
11.997461318969727, 379.0
12.014715433120728, 384.0
12.035151720046997, 378.0
12.05324673652649, 372.0
12.069344282150269, 375.0
12.08561110496521, 375.0
12.104097127914429, 392.0
12.121058702468872, 395.0
12.137619972229004, 404.0
12.153832197189331, 392.0
12.170258522033691, 403.0
12.186663389205933, 381.0
12.203489065170288, 382.0
12.220597267150879, 377.0
12.236741781234741, 388.0
12.253693103790283, 389.0
12.269917011260986, 363.0
12.285696268081665, 362.0
12.302458763122559, 353.0
12.318112850189209, 342.0
12.33337140083313, 352.0
12.348546504974365, 337.0
12.364099740982056, 342.0
12.379024982452393, 332.0
12.39448618888855, 341.0
12.410522937774658, 353.0
12.429746866226196, 356.0
12.447479963302612, 361.0
12.463560581207275, 359.0
12.480323553085327, 376.0
12.496831893920898, 353.0
12.512593746185303, 359.0
12.528803825378418, 364.0
12.544772148132324, 349.0
12.560900926589966, 357.0
12.577075481414795, 369.0
12.593250036239624, 360.0
12.611423969268799, 390.0
12.627805709838867, 366.0
12.64435887336731, 382.0
12.660787105560303, 370.0
12.677217245101929, 369.0
12.695136785507202, 387.0
12.712342739105225, 366.0
12.728750228881836, 340.0
12.744467973709106, 359.0
12.760384321212769, 332.0
12.775996446609497, 334.0
12.790749073028564, 296.0
12.807219505310059, 327.0
12.823188066482544, 333.0
12.8386812210083, 335.0
12.85438346862793, 345.0
12.86960482597351, 343.0
12.884751796722412, 331.0
12.900067329406738, 347.0
12.915050268173218, 320.0
12.930687665939331, 347.0
12.946397542953491, 347.0
12.962265253067017, 347.0
12.978398323059082, 344.0
12.996312618255615, 353.0
13.011433601379395, 324.0
13.026227951049805, 327.0
13.042920112609863, 332.0
13.063390493392944, 337.0
13.078901529312134, 345.0
13.094173431396484, 339.0
13.109593152999878, 345.0
13.124428033828735, 324.0
13.140185117721558, 324.0
13.155201196670532, 322.0
13.17034101486206, 328.0
13.185440301895142, 328.0
13.200481414794922, 319.0
13.215837955474854, 317.0
13.230865478515625, 339.0
13.246088027954102, 329.0
13.260865449905396, 315.0
13.275196552276611, 332.0
13.29110836982727, 333.0
13.30562138557434, 315.0
13.319950580596924, 297.0
13.333228588104248, 279.0
13.34701681137085, 285.0
13.36190152168274, 317.0
13.376304864883423, 318.0
13.390384674072266, 296.0
13.404798984527588, 276.0
13.420394897460938, 292.0
13.436706066131592, 350.0
13.452217102050781, 332.0
13.468254804611206, 336.0
13.484760046005249, 373.0
13.502361297607422, 391.0
13.519832134246826, 414.0
13.537401676177979, 402.0
13.556840658187866, 404.0
13.577574253082275, 417.0
13.594193458557129, 391.0
13.611534118652344, 380.0
13.6277437210083, 382.0
13.643997192382812, 374.0
13.65999722480774, 379.0
13.676390647888184, 379.0
13.692728519439697, 391.0
13.70869517326355, 368.0
13.724716186523438, 354.0
13.741811513900757, 377.0
13.759490966796875, 398.0
13.77585506439209, 379.0
13.791937828063965, 377.0
13.807595491409302, 352.0
13.82340407371521, 361.0
13.83866834640503, 355.0
13.854523658752441, 376.0
13.870279550552368, 364.0
13.885278940200806, 349.0
13.900707721710205, 359.0
13.91604232788086, 350.0
13.930911540985107, 333.0
13.946690559387207, 349.0
13.96251392364502, 366.0
13.977371215820312, 342.0
13.992414236068726, 347.0
14.00710415840149, 338.0
14.02164340019226, 318.0
14.036092042922974, 336.0
14.050815343856812, 335.0
14.071764945983887, 336.0
14.085880756378174, 322.0
14.099872350692749, 310.0
14.114952325820923, 321.0
14.129652738571167, 309.0
14.143323421478271, 303.0
14.157432556152344, 323.0
14.17223072052002, 337.0
14.186891078948975, 313.0
14.204126358032227, 335.0
14.21886944770813, 326.0
14.234375715255737, 308.0
14.248764753341675, 330.0
14.264112949371338, 339.0
14.279056549072266, 338.0
14.294355630874634, 332.0
14.310263872146606, 355.0
14.326374053955078, 360.0
14.341709852218628, 364.0
14.357165813446045, 345.0
14.373116731643677, 345.0
14.389262676239014, 344.0
14.404680728912354, 346.0
14.42245078086853, 360.0
14.43804144859314, 354.0
14.454751968383789, 371.0
14.4706871509552, 356.0
14.486401557922363, 337.0
14.502502918243408, 366.0
14.51905345916748, 381.0
14.534786939620972, 362.0
14.55084228515625, 372.0
14.566767692565918, 375.0
14.583529949188232, 379.0
14.599634170532227, 386.0
14.61711859703064, 389.0
14.634078025817871, 392.0
14.650959968566895, 392.0
14.6693115234375, 439.0
14.686786651611328, 413.0
14.705076694488525, 440.0
14.724551677703857, 468.0
14.747344017028809, 494.0
14.76710057258606, 478.0
14.786456823348999, 496.0
14.80609917640686, 478.0
14.82607889175415, 495.0
14.846865177154541, 497.0
14.866804599761963, 480.0
14.88709020614624, 491.0
14.907853603363037, 452.0
14.928388357162476, 475.0
14.948435544967651, 468.0
14.968834161758423, 482.0
14.988911390304565, 481.0
15.009451866149902, 501.0
15.029853820800781, 480.0
15.049641370773315, 447.0
15.06899356842041, 467.0
15.093312978744507, 459.0
15.11449909210205, 454.0
15.13414740562439, 468.0
15.152830123901367, 461.0
15.172755241394043, 463.0
15.191953182220459, 453.0
15.211487531661987, 455.0
15.230238437652588, 438.0
15.24994683265686, 463.0
15.26893138885498, 442.0
15.287905931472778, 414.0
15.306010007858276, 423.0
15.324493885040283, 427.0
15.341764450073242, 397.0
15.359449863433838, 400.0
15.377442359924316, 390.0
15.394615650177002, 366.0
15.411248207092285, 347.0
15.429548501968384, 377.0
15.445467710494995, 352.0
15.461183309555054, 347.0
15.476314544677734, 339.0
15.49232292175293, 364.0
15.507530450820923, 353.0
15.524056911468506, 356.0
15.539457321166992, 354.0
15.555281639099121, 356.0
15.570774793624878, 358.0
15.586416959762573, 348.0
15.60342788696289, 354.0
15.618913650512695, 348.0
15.634281396865845, 346.0
15.649449825286865, 343.0
15.663842678070068, 318.0
15.67980170249939, 332.0
15.694990873336792, 325.0
15.709821701049805, 306.0
15.723434925079346, 295.0
15.737287282943726, 298.0
15.750685691833496, 264.0
15.763911485671997, 263.0
15.77780795097351, 249.0
15.790185689926147, 246.0
15.802719831466675, 238.0
15.814937353134155, 232.0
15.82741379737854, 230.0
15.839709520339966, 206.0
15.851747751235962, 215.0
15.863455057144165, 214.0
15.875152349472046, 212.0
15.886558532714844, 210.0
15.898194074630737, 186.0
15.90903377532959, 179.0
15.921379327774048, 171.0
15.939623832702637, 165.0
15.958176851272583, 152.0
15.971757173538208, 143.0
15.981818675994873, 159.0
15.991466522216797, 145.0
16.001269578933716, 153.0
16.015367031097412, 140.0
16.025047302246094, 147.0
16.03446364402771, 145.0
16.043946027755737, 148.0
16.05328106880188, 136.0
16.063151597976685, 145.0
16.072569370269775, 135.0
16.08231544494629, 150.0
16.093465566635132, 142.0
16.105884790420532, 145.0
16.11563491821289, 135.0
16.125191688537598, 154.0
16.13456654548645, 135.0
16.14419174194336, 142.0
16.153513431549072, 124.0
16.162784337997437, 140.0
16.17250633239746, 131.0
16.182729721069336, 148.0
16.19224739074707, 157.0
16.201663494110107, 148.0
16.212436199188232, 153.0
16.221982717514038, 149.0
16.23150634765625, 148.0
16.24100685119629, 158.0
16.25065588951111, 160.0
16.260254383087158, 154.0
16.270058393478394, 164.0
16.280100345611572, 175.0
16.289794921875, 152.0
16.29971981048584, 150.0
16.309638023376465, 159.0
16.31924796104431, 155.0
16.329135179519653, 163.0
16.338396549224854, 130.0
16.3476402759552, 114.0
16.356648206710815, 111.0
16.365965843200684, 121.0
16.37550115585327, 132.0
16.384920597076416, 144.0
16.395344972610474, 167.0
16.40517807006836, 140.0
16.417112112045288, 148.0
16.427396774291992, 173.0
16.43821406364441, 198.0
16.45016074180603, 250.0
16.46273398399353, 262.0
16.47570514678955, 292.0
16.48935556411743, 313.0
16.50295352935791, 326.0
16.516651153564453, 329.0
16.5304114818573, 319.0
16.54447031021118, 343.0
16.55826687812805, 318.0
16.57318663597107, 333.0
16.588396072387695, 319.0
16.60536766052246, 333.0
16.61998414993286, 322.0
16.635299921035767, 321.0
16.649080753326416, 324.0
16.663509130477905, 328.0
16.677669286727905, 334.0
16.69289541244507, 313.0
16.706588983535767, 301.0
16.721715688705444, 331.0
16.736608028411865, 334.0
16.752208471298218, 336.0
16.7666232585907, 348.0
16.78104829788208, 323.0
16.794721126556396, 311.0
16.80911898612976, 302.0
16.82304573059082, 314.0
16.837064266204834, 319.0
16.850478649139404, 309.0
16.86607837677002, 321.0
16.8799307346344, 327.0
16.89439606666565, 321.0
16.909188508987427, 331.0
16.92458987236023, 326.0
16.93915605545044, 341.0
16.95447611808777, 349.0
16.96885895729065, 332.0
16.98451852798462, 352.0
16.999196529388428, 346.0
17.014304161071777, 349.0
17.028956174850464, 352.0
17.04449152946472, 337.0
17.059144020080566, 346.0
17.074542999267578, 330.0
17.088398456573486, 324.0
17.103163242340088, 306.0
17.120211362838745, 314.0
17.13541054725647, 297.0
17.148619413375854, 293.0
17.161919593811035, 280.0
17.174816131591797, 275.0
17.18869423866272, 272.0
17.20123839378357, 270.0
17.214937925338745, 286.0
17.227684259414673, 274.0
17.241695642471313, 266.0
17.258023023605347, 317.0
17.27320384979248, 346.0
17.2871732711792, 332.0
17.30055046081543, 300.0
17.313135147094727, 278.0
17.326631546020508, 296.0
17.34009623527527, 298.0
17.354026794433594, 314.0
17.367897510528564, 299.0
17.381829500198364, 302.0
17.39514660835266, 298.0
17.409428358078003, 315.0
17.42486810684204, 327.0
17.439792156219482, 323.0
17.455232858657837, 350.0
17.470123529434204, 330.0
17.484167337417603, 326.0
17.499183654785156, 301.0
17.514447450637817, 335.0
17.529489517211914, 339.0
17.54419207572937, 351.0
17.559664726257324, 331.0
17.574429512023926, 344.0
17.589607000350952, 348.0
17.604244232177734, 349.0
17.620869874954224, 359.0
17.635677099227905, 367.0
17.65069890022278, 352.0
17.665340900421143, 346.0
17.680610418319702, 342.0
17.696030616760254, 333.0
17.71117401123047, 311.0
17.726483821868896, 307.0
17.741177558898926, 340.0
17.75524616241455, 326.0
17.77081274986267, 326.0
17.786298274993896, 320.0
17.800885677337646, 308.0
17.814379692077637, 280.0
17.828593015670776, 272.0
17.841314554214478, 260.0
17.855230808258057, 263.0
17.86868977546692, 238.0
17.881868839263916, 233.0
17.893911838531494, 251.0
17.906437158584595, 246.0
17.91848111152649, 261.0
17.931145429611206, 270.0
17.94389581680298, 282.0
17.958701848983765, 281.0
17.97139811515808, 290.0
17.988772869110107, 291.0
18.001861333847046, 299.0
18.0157208442688, 310.0
18.035340785980225, 311.0
18.049769163131714, 294.0
18.062936067581177, 301.0
18.076993942260742, 302.0
18.090464115142822, 299.0
18.104855060577393, 288.0
18.119886875152588, 298.0
18.13995671272278, 297.0
18.154011964797974, 298.0
18.167450189590454, 282.0
18.179758310317993, 262.0
18.192861080169678, 271.0
18.20531964302063, 268.0
18.219013214111328, 280.0
18.232845783233643, 267.0
18.246031999588013, 272.0
18.258349418640137, 259.0
18.271524906158447, 271.0
18.28374743461609, 261.0
18.297517776489258, 266.0
18.31043243408203, 248.0
18.323528051376343, 255.0
18.3357937335968, 257.0
18.348756551742554, 266.0
18.36116313934326, 270.0
18.37533450126648, 278.0
18.388072967529297, 289.0
18.401300191879272, 267.0
18.4135479927063, 260.0
18.428861141204834, 278.0
18.442158222198486, 272.0
18.454938650131226, 276.0
18.468589544296265, 281.0
18.481245040893555, 280.0
18.495464086532593, 280.0
18.50799036026001, 268.0
18.521412134170532, 255.0
18.534417390823364, 289.0
18.548235177993774, 288.0
18.561280012130737, 286.0
18.57575798034668, 292.0
18.599175453186035, 312.0
18.614956617355347, 325.0
18.6291446685791, 304.0
18.644015073776245, 315.0
18.657087564468384, 300.0
18.6712703704834, 302.0
18.684271097183228, 298.0
18.69803214073181, 301.0
18.710968017578125, 290.0
18.725716590881348, 287.0
18.738643169403076, 287.0
18.751862287521362, 281.0
18.764684677124023, 288.0
18.778437852859497, 279.0
18.791823387145996, 292.0
18.80531072616577, 284.0
18.817683935165405, 273.0
18.830676078796387, 270.0
18.842824935913086, 268.0
18.855976581573486, 273.0
18.86820077896118, 270.0
18.88102912902832, 256.0
18.89292073249817, 248.0
18.905407667160034, 253.0
18.91694188117981, 240.0
18.929609060287476, 241.0
18.941789865493774, 243.0
18.954325914382935, 228.0
18.965869903564453, 229.0
18.97806191444397, 226.0
18.989656448364258, 233.0
19.001525402069092, 220.0
19.016141891479492, 217.0
19.02773404121399, 228.0
19.040067434310913, 237.0
19.05120086669922, 221.0
19.06326723098755, 223.0
19.074915647506714, 228.0
19.087944746017456, 231.0
19.099183082580566, 233.0
19.111456394195557, 230.0
19.122741222381592, 232.0
19.1348295211792, 238.0
19.150186777114868, 234.0
19.163981199264526, 239.0
19.175748586654663, 244.0
19.189080953598022, 238.0
19.20049524307251, 234.0
19.21259617805481, 232.0
19.224671602249146, 218.0
19.236055850982666, 191.0
19.246859312057495, 208.0
19.258893728256226, 201.0
19.26893901824951, 175.0
19.279991626739502, 169.0
19.29027009010315, 181.0
19.301554918289185, 184.0
19.313060760498047, 213.0
19.325087308883667, 219.0
19.336505889892578, 241.0
19.349918127059937, 269.0
19.362232446670532, 254.0
19.37566089630127, 272.0
19.388248920440674, 281.0
19.402771472930908, 289.0
19.417916774749756, 292.0
19.431407690048218, 290.0
19.445186614990234, 318.0
19.460327625274658, 335.0
19.47482180595398, 366.0
19.490670680999756, 377.0
19.507168769836426, 389.0
19.524402141571045, 431.0
19.541544198989868, 424.0
19.562813997268677, 440.0
19.58086109161377, 450.0
19.599148750305176, 452.0
19.618106603622437, 444.0
19.636602878570557, 449.0
19.65530753135681, 435.0
19.673924684524536, 453.0
19.691840648651123, 452.0
19.71013331413269, 447.0
19.728309631347656, 456.0
19.746965169906616, 464.0
19.766329765319824, 471.0
19.785491943359375, 460.0
19.80418300628662, 474.0
19.822691679000854, 456.0
19.83954405784607, 417.0
19.856362342834473, 404.0
19.871967554092407, 375.0
19.887407779693604, 347.0
19.901811599731445, 340.0
19.916632413864136, 337.0
19.93175220489502, 348.0
19.94571280479431, 326.0
19.958679676055908, 291.0
19.97304892539978, 268.0
19.984273195266724, 220.0
19.996020317077637, 208.0
20.00694179534912, 207.0
20.018304109573364, 186.0
20.028535842895508, 183.0
20.03938603401184, 178.0
20.04934048652649, 176.0
20.059842824935913, 166.0
20.071236610412598, 141.0
20.082727909088135, 148.0
20.092347383499146, 157.0
20.10437035560608, 170.0
20.114084720611572, 171.0
20.124677419662476, 153.0
20.134197235107422, 140.0
20.144697904586792, 133.0
20.155097723007202, 161.0
20.16981840133667, 208.0
20.181260108947754, 204.0
20.19304132461548, 214.0
20.204251050949097, 225.0
20.219587802886963, 212.0
20.230666875839233, 207.0
20.24393916130066, 235.0
20.255842447280884, 251.0
20.268558502197266, 263.0
20.28117346763611, 264.0
20.29392099380493, 263.0
20.30613398551941, 268.0
20.31886649131775, 268.0
20.33168625831604, 270.0
20.345494508743286, 271.0
20.35765814781189, 273.0
20.370692253112793, 258.0
20.38357710838318, 260.0
20.396878957748413, 221.0
20.408386707305908, 211.0
20.42247176170349, 235.0
20.433600664138794, 199.0
20.44523811340332, 186.0
20.455195665359497, 158.0
20.465694427490234, 137.0
20.4753680229187, 134.0
20.48572611808777, 151.0
20.494956254959106, 139.0
20.506258726119995, 103.0
20.51591205596924, 92.0
20.527365684509277, 124.0
20.53663206100464, 135.0
20.54836654663086, 152.0
20.558187246322632, 162.0
20.5688955783844, 155.0
20.578855276107788, 142.0
20.58923363685608, 142.0
20.598918437957764, 143.0
20.60982894897461, 159.0
20.61997652053833, 133.0
20.630038022994995, 114.0
20.639143466949463, 94.0
20.651122331619263, 92.0
20.659865856170654, 86.0
20.67247748374939, 76.0
20.682700872421265, 68.0
20.697457551956177, 63.0
20.707400798797607, 70.0
20.716460466384888, 72.0
20.725155353546143, 85.0
20.736052751541138, 88.0
20.744539737701416, 99.0
20.75427484512329, 122.0
20.763448476791382, 159.0
20.776381015777588, 185.0
20.78628921508789, 193.0
20.798508405685425, 246.0
20.810754537582397, 286.0
20.825467109680176, 310.0
20.83905291557312, 330.0
20.854267120361328, 361.0
20.869322299957275, 386.0
20.88534140586853, 417.0
20.901591300964355, 440.0
20.919840812683105, 417.0
20.939303159713745, 432.0
20.958539247512817, 408.0
20.976634740829468, 423.0
20.994840621948242, 415.0
21.01260757446289, 412.0
21.03095507621765, 443.0
21.048306941986084, 434.0
21.06623101234436, 440.0
21.083507537841797, 443.0
21.100666999816895, 427.0
21.121477365493774, 447.0
21.138916015625, 431.0
21.1570725440979, 462.0
21.178773164749146, 446.0
21.199095249176025, 459.0
21.217983722686768, 434.0
21.235717296600342, 460.0
21.25417733192444, 435.0
21.272605180740356, 447.0
21.291951179504395, 452.0
21.30954122543335, 438.0
21.32841682434082, 452.0
21.345494508743286, 439.0
21.363088369369507, 438.0
21.380187034606934, 434.0
21.398626804351807, 415.0
21.417566776275635, 442.0
21.434274911880493, 409.0
21.450791597366333, 405.0
21.46746253967285, 411.0
21.483410596847534, 389.0
21.49935555458069, 385.0
21.516061782836914, 392.0
21.532261610031128, 394.0
21.54720449447632, 349.0
21.56322956085205, 364.0
21.577835083007812, 339.0
21.59323525428772, 343.0
21.608097076416016, 356.0
21.623815298080444, 343.0
21.64194965362549, 346.0
21.657484531402588, 350.0
21.671502590179443, 325.0
21.68620753288269, 348.0
21.700052976608276, 341.0
21.71509885787964, 334.0
21.730014085769653, 347.0
21.74432110786438, 339.0
21.75901436805725, 344.0
21.773701667785645, 332.0
21.787904739379883, 334.0
21.801454067230225, 330.0
21.815815448760986, 322.0
21.82944130897522, 336.0
21.84358310699463, 331.0
21.85777235031128, 340.0
21.872638702392578, 330.0
21.88647198677063, 345.0
21.90057110786438, 326.0
21.914344549179077, 332.0
21.928996324539185, 334.0
21.943761110305786, 325.0
21.958525896072388, 357.0
21.972806930541992, 354.0
21.98697304725647, 338.0
22.00208878517151, 338.0
22.01714587211609, 343.0
22.033802270889282, 345.0
22.04791808128357, 331.0
22.061928272247314, 355.0
22.07684898376465, 338.0
22.090640544891357, 349.0
22.104902505874634, 355.0
22.119256734848022, 355.0
22.13397741317749, 368.0
22.148345947265625, 372.0
22.163537740707397, 398.0
22.178044080734253, 370.0
22.19854998588562, 380.0
22.21515679359436, 396.0
22.230722665786743, 398.0
22.246243953704834, 414.0
22.262669324874878, 422.0
22.278697967529297, 445.0
22.29620099067688, 467.0
22.312875747680664, 434.0
22.330859184265137, 452.0
22.34834337234497, 440.0
22.366413831710815, 423.0
22.384188890457153, 407.0
22.401714324951172, 412.0
22.421083450317383, 437.0
22.43889331817627, 416.0
22.455955505371094, 389.0
22.474608182907104, 406.0
22.491860389709473, 397.0
22.509639501571655, 404.0
22.526765823364258, 389.0
22.54525876045227, 402.0
22.56251811981201, 385.0
22.58040189743042, 400.0
22.59796452522278, 417.0
22.618075370788574, 408.0
22.63402509689331, 375.0
22.65034794807434, 370.0
22.667304039001465, 369.0
22.684994220733643, 394.0
22.70195746421814, 426.0
22.719919681549072, 445.0
22.73947286605835, 482.0
22.7603862285614, 501.0
22.781744956970215, 517.0
22.803962230682373, 519.0
22.8242347240448, 473.0
22.844924688339233, 476.0
22.862923622131348, 416.0
22.88089871406555, 419.0
22.89823818206787, 402.0
22.914318084716797, 376.0
22.93185067176819, 359.0
22.947283506393433, 330.0
22.961097717285156, 301.0
22.975619077682495, 269.0
22.98789930343628, 249.0
23.00169348716736, 228.0
23.012988328933716, 221.0
23.026063680648804, 251.0
23.03782892227173, 245.0
23.050616025924683, 215.0
23.061603784561157, 195.0
23.07309651374817, 187.0
23.08388352394104, 187.0
23.0959415435791, 182.0
23.107271432876587, 188.0
23.119385242462158, 164.0
23.129571199417114, 148.0
23.140894174575806, 147.0
23.15101408958435, 150.0
23.1627779006958, 140.0
23.172532558441162, 124.0
23.182713508605957, 102.0
23.19187617301941, 103.0
23.202563762664795, 78.0
23.213048934936523, 83.0
23.225279569625854, 93.0
23.234759092330933, 99.0
23.245631217956543, 115.0
23.254974603652954, 116.0
23.265756130218506, 113.0
23.275100469589233, 112.0
23.285588264465332, 110.0
23.294850826263428, 108.0
23.30622625350952, 89.0
23.31633448600769, 96.0
23.326584100723267, 87.0
23.335728406906128, 82.0
23.34589147567749, 102.0
23.35584855079651, 114.0
23.366739511489868, 128.0
23.37628674507141, 121.0
23.386911869049072, 138.0
23.396650791168213, 142.0
23.408377408981323, 151.0
23.41977310180664, 156.0
23.430805206298828, 157.0
23.441288948059082, 146.0
23.45325207710266, 153.0
23.463529586791992, 147.0
23.474125146865845, 143.0
23.485047340393066, 155.0
23.495673894882202, 155.0
23.506750106811523, 159.0
23.51801896095276, 138.0
23.528056621551514, 149.0
23.53830885887146, 137.0
23.548003911972046, 130.0
23.55867886543274, 123.0
23.568126440048218, 107.0
23.578571796417236, 102.0
23.587770700454712, 104.0
23.59748148918152, 87.0
23.606673002243042, 74.0
23.616332530975342, 81.0
23.625624895095825, 84.0
23.635082721710205, 74.0
23.643704175949097, 69.0
23.654499530792236, 69.0
23.66418981552124, 72.0
23.67302370071411, 60.0
23.682445287704468, 65.0
23.69114327430725, 64.0
23.701487064361572, 57.0
23.710203647613525, 62.0
23.720496892929077, 62.0
23.729254484176636, 63.0
23.738967418670654, 75.0
23.747716903686523, 73.0
23.757372617721558, 74.0
23.766390562057495, 89.0
23.77655553817749, 78.0
23.785667181015015, 90.0
23.795541763305664, 105.0
23.804667472839355, 109.0
23.814639568328857, 101.0
23.82484769821167, 103.0
23.836647987365723, 101.0
23.846153259277344, 116.0
23.856808185577393, 108.0
23.8672091960907, 114.0
23.878780364990234, 129.0
23.888675212860107, 146.0
23.899760246276855, 126.0
23.909810543060303, 133.0
23.920854568481445, 148.0
23.931968688964844, 148.0
23.943023681640625, 178.0
23.954264402389526, 185.0
23.966074466705322, 191.0
23.978052139282227, 222.0
23.99053430557251, 227.0
24.002994060516357, 241.0
24.01600170135498, 258.0
24.028928995132446, 274.0
24.043259143829346, 277.0
24.056796073913574, 297.0
24.07209038734436, 309.0
24.08652901649475, 311.0
24.10147476196289, 317.0
24.117154598236084, 358.0
24.136426210403442, 340.0
24.153050422668457, 400.0
24.17283535003662, 368.0
24.189199686050415, 383.0
24.20600199699402, 380.0
24.223145961761475, 410.0
24.244869232177734, 426.0
24.262227296829224, 406.0
24.28152585029602, 472.0
24.300498485565186, 439.0
24.320820569992065, 457.0
24.34034824371338, 462.0
24.361035346984863, 463.0
24.381938695907593, 511.0
24.402254819869995, 475.0
24.424116849899292, 490.0
24.444857835769653, 490.0
24.464604377746582, 482.0
24.484254598617554, 467.0
24.50348663330078, 475.0
24.523349046707153, 475.0
24.54147982597351, 456.0
24.559348344802856, 436.0
24.578256368637085, 471.0
24.596787214279175, 422.0
24.615002393722534, 439.0
24.633912801742554, 442.0
24.65247678756714, 436.0
24.671130180358887, 418.0
24.689249277114868, 434.0
24.706775665283203, 417.0
24.724854230880737, 433.0
24.74327516555786, 417.0
24.76007604598999, 389.0
24.77780842781067, 412.0
24.79433846473694, 393.0
24.812878131866455, 416.0
24.829487323760986, 402.0
24.846083879470825, 377.0
24.863022565841675, 374.0
24.879756689071655, 361.0
24.895415544509888, 357.0
24.91096591949463, 336.0
24.926899194717407, 342.0
24.941967487335205, 325.0
24.956905603408813, 307.0
24.970455169677734, 302.0
24.985584497451782, 277.0
24.99964427947998, 270.0
25.013493299484253, 269.0
25.02703857421875, 260.0
25.039286851882935, 227.0
25.051459789276123, 249.0
25.063456535339355, 222.0
25.076027631759644, 204.0
25.088258028030396, 232.0
25.09955406188965, 207.0
25.11262536048889, 205.0
25.12391948699951, 219.0
25.136199474334717, 197.0
25.149049758911133, 205.0
25.161219120025635, 209.0
25.172438621520996, 201.0
25.184390544891357, 207.0
25.19536304473877, 202.0
25.20713472366333, 197.0
25.2183780670166, 204.0
25.229971170425415, 195.0
25.247609853744507, 195.0
25.261129140853882, 203.0
25.273012399673462, 204.0
25.285731315612793, 205.0
25.300411462783813, 210.0
25.312584400177002, 226.0
25.323362112045288, 212.0
25.33664631843567, 229.0
25.34773325920105, 217.0
25.35910940170288, 194.0
25.370648622512817, 206.0
25.38285207748413, 221.0
25.393882513046265, 200.0
25.40578532218933, 202.0
25.419196128845215, 195.0
25.4308762550354, 209.0
25.44442343711853, 204.0
25.455736875534058, 200.0
25.467058897018433, 192.0
25.478214025497437, 199.0
25.490098476409912, 207.0
25.500824213027954, 183.0
25.512107372283936, 182.0
25.522429943084717, 165.0
25.533649444580078, 175.0
25.54398202896118, 167.0
25.55475354194641, 151.0
25.565305709838867, 164.0
25.576804876327515, 154.0
25.586954355239868, 144.0
25.597755432128906, 135.0
25.607630491256714, 147.0
25.61826467514038, 138.0
25.62892484664917, 132.0
25.641382694244385, 155.0
25.651366472244263, 165.0
25.662389039993286, 177.0
25.673011302947998, 168.0
25.684146642684937, 184.0
25.694884777069092, 205.0
25.707390069961548, 193.0
25.71818733215332, 198.0
25.73071551322937, 204.0
25.741390228271484, 181.0
25.7528395652771, 182.0
25.76335644721985, 183.0
25.775018215179443, 169.0
25.785622119903564, 161.0
25.79658579826355, 167.0
25.80694007873535, 157.0
25.817610025405884, 148.0
25.827932119369507, 145.0
25.840383768081665, 161.0
25.850476264953613, 158.0
25.861976861953735, 164.0
25.87168288230896, 149.0
25.882269859313965, 144.0
25.893470287322998, 132.0
25.905630111694336, 132.0
25.915675163269043, 116.0
25.927812814712524, 113.0
25.937772035598755, 128.0
25.947997331619263, 133.0
25.957504749298096, 134.0
25.96865177154541, 136.0
25.97854232788086, 147.0
25.990378379821777, 134.0
26.000068187713623, 136.0
26.010782480239868, 146.0
26.020997762680054, 154.0
26.033396244049072, 161.0
26.04382348060608, 175.0
26.056397199630737, 164.0
26.06724214553833, 186.0
26.07898235321045, 185.0
26.090197801589966, 211.0
26.1025173664093, 232.0
26.114126682281494, 234.0
26.12625026702881, 216.0
26.137908458709717, 211.0
26.15043306350708, 206.0
26.16123127937317, 169.0
26.172714471817017, 152.0
26.182814598083496, 155.0
26.193495273590088, 141.0
26.203285455703735, 131.0
26.213645935058594, 119.0
26.223369598388672, 136.0
26.234705924987793, 134.0
26.24484920501709, 139.0
26.258732080459595, 168.0
26.273991346359253, 198.0
26.286117792129517, 189.0
26.29717516899109, 176.0
26.309457063674927, 167.0
26.320045232772827, 172.0
26.332380056381226, 196.0
26.343442916870117, 195.0
26.356712341308594, 241.0
26.368467330932617, 256.0
26.381925344467163, 241.0
26.394424200057983, 240.0
26.407042503356934, 215.0
26.420262575149536, 231.0
26.43273401260376, 189.0
26.443633317947388, 186.0
26.455270528793335, 171.0
26.46596670150757, 167.0
26.476839303970337, 145.0
26.486934185028076, 151.0
26.49769401550293, 146.0
26.507925510406494, 160.0
26.51935625076294, 163.0
26.53035593032837, 188.0
26.542402982711792, 160.0
26.553187370300293, 136.0
26.56439995765686, 146.0
26.57435393333435, 135.0
26.586153745651245, 113.0
26.595430374145508, 110.0
26.605671644210815, 103.0
26.615103721618652, 119.0
26.626084089279175, 129.0
26.635767936706543, 152.0
26.646687746047974, 134.0
26.65650200843811, 126.0
26.66938090324402, 169.0
26.679467916488647, 175.0
26.691222429275513, 182.0
26.70174765586853, 184.0
26.71338391304016, 160.0
26.724064826965332, 166.0
26.736384391784668, 162.0
26.746426105499268, 160.0
26.758380889892578, 185.0
26.76897644996643, 186.0
26.780987977981567, 186.0
26.792648792266846, 191.0
26.803889751434326, 173.0
26.81482744216919, 168.0
26.826929807662964, 185.0
26.837672472000122, 179.0
26.85038948059082, 179.0
26.861336946487427, 188.0
26.873027324676514, 181.0
26.883673191070557, 164.0
26.894920110702515, 164.0
26.905274868011475, 152.0
26.916958332061768, 161.0
26.927910089492798, 184.0
26.940388679504395, 188.0
26.95263981819153, 201.0
26.965299367904663, 218.0
26.977839946746826, 223.0
26.990352392196655, 234.0
27.002234935760498, 236.0
27.014315366744995, 221.0
27.02601933479309, 208.0
27.038262605667114, 221.0
27.049684047698975, 214.0
27.062601327896118, 197.0
27.07421588897705, 223.0
27.086427450180054, 223.0
27.09787917137146, 226.0
27.10975742340088, 192.0
27.120646238327026, 195.0
27.13491129875183, 206.0
27.14747905731201, 185.0
27.160088062286377, 200.0
27.171444177627563, 196.0
27.183987855911255, 202.0
27.195136785507202, 177.0
27.20838975906372, 185.0
27.21960139274597, 214.0
27.232433795928955, 199.0
27.24282217025757, 188.0
27.253674268722534, 172.0
27.263792753219604, 155.0
27.2772057056427, 125.0
27.28916049003601, 122.0
27.300119400024414, 131.0
27.31061053276062, 144.0
27.32155966758728, 156.0
27.332029104232788, 176.0
27.343859672546387, 152.0
27.354321479797363, 161.0
27.366374969482422, 153.0
27.37686038017273, 176.0
27.387808799743652, 179.0
27.398267030715942, 180.0
27.410380840301514, 186.0
27.421205282211304, 180.0
27.431997299194336, 151.0
27.442517518997192, 151.0
27.452502012252808, 164.0
27.463462829589844, 162.0
27.473679065704346, 167.0
27.48538088798523, 182.0
27.495241165161133, 171.0
27.50575613975525, 152.0
27.515167951583862, 146.0
27.525399684906006, 147.0
27.53447198867798, 139.0
27.544676065444946, 140.0
27.554155349731445, 145.0
27.564639806747437, 123.0
27.573620796203613, 113.0
27.583376169204712, 107.0
27.592902898788452, 101.0
27.602903127670288, 121.0
27.611901998519897, 111.0
27.621843099594116, 112.0
27.631654500961304, 114.0
27.643301725387573, 120.0
27.654148817062378, 131.0
27.664801359176636, 141.0
27.675036668777466, 163.0
27.687661170959473, 165.0
27.698842525482178, 159.0
27.709863662719727, 161.0
27.72127866744995, 181.0
27.73299479484558, 185.0
27.745464086532593, 189.0
27.758752584457397, 222.0
27.771242141723633, 243.0
27.785706043243408, 292.0
27.799485683441162, 301.0
27.81311345100403, 292.0
27.82596707344055, 281.0
27.840181589126587, 265.0
27.850623846054077, 199.0
27.862387657165527, 159.0
27.871952533721924, 114.0
27.883150339126587, 105.0
27.89222025871277, 97.0
27.902601718902588, 92.0
27.91149616241455, 92.0
27.921468019485474, 63.0
27.93009352684021, 56.0
27.941144704818726, 59.0
27.950002670288086, 67.0
27.960381269454956, 83.0
27.968934059143066, 52.0
27.979492664337158, 34.0
27.988601207733154, 40.0
27.99920678138733, 41.0
28.00941014289856, 34.0
28.017801523208618, 35.0
28.027408599853516, 37.0
28.0396089553833, 34.0
28.048423528671265, 42.0
28.057196855545044, 38.0
28.06632399559021, 51.0
28.07455587387085, 44.0
28.08391046524048, 44.0
28.09205961227417, 55.0
28.102840900421143, 59.0
28.111258506774902, 60.0
28.12040400505066, 55.0
28.128565549850464, 57.0
28.139108657836914, 51.0
28.147275686264038, 50.0
28.156469345092773, 53.0
28.16496753692627, 46.0
28.174002647399902, 59.0
28.182220935821533, 47.0
28.19278645515442, 49.0
28.20159649848938, 48.0
28.21225118637085, 44.0
28.22142767906189, 37.0
28.23039674758911, 46.0
28.238651037216187, 35.0
28.248852014541626, 44.0
28.256909608840942, 50.0
28.26597571372986, 48.0
28.274167776107788, 46.0
28.28328013420105, 48.0
28.293636322021484, 48.0
28.305147409439087, 43.0
28.313737392425537, 44.0
28.323432445526123, 40.0
28.331549406051636, 42.0
28.34044575691223, 42.0
28.34837555885315, 41.0
28.358673095703125, 31.0
28.367188453674316, 41.0
28.375847339630127, 34.0
28.38384246826172, 41.0
28.392456531524658, 33.0
28.400691747665405, 38.0
28.409558057785034, 35.0
28.418512105941772, 39.0
28.42989444732666, 31.0
28.438692331314087, 27.0
28.448266983032227, 35.0
28.457282543182373, 31.0
28.466731071472168, 32.0
28.475653648376465, 25.0
28.485089778900146, 31.0
28.49356985092163, 30.0
28.502974271774292, 29.0
28.51095461845398, 21.0
28.51933789253235, 28.0
28.52712059020996, 24.0
28.534753799438477, 23.0
