2.122960329055786, 332.0
2.1496174335479736, 344.0
2.1811397075653076, 340.0
2.208237886428833, 334.0
2.2338552474975586, 344.0
2.2601981163024902, 347.0
2.287231206893921, 348.0
2.3130719661712646, 346.0
2.3390228748321533, 326.0
2.36503005027771, 344.0
2.391371011734009, 352.0
2.4200103282928467, 343.0
2.446875810623169, 349.0
2.4750099182128906, 364.0
2.5020718574523926, 354.0
2.529571294784546, 353.0
2.5554451942443848, 332.0
2.5830578804016113, 342.0
2.609710931777954, 327.0
2.636192560195923, 338.0
2.6628806591033936, 348.0
2.690948486328125, 362.0
2.7179863452911377, 340.0
2.745482921600342, 355.0
2.7722532749176025, 335.0
2.798258066177368, 340.0
2.8239893913269043, 326.0
2.8487024307250977, 327.0
2.8742215633392334, 321.0
2.904031276702881, 321.0
2.9302101135253906, 332.0
2.9567887783050537, 326.0
2.982177257537842, 324.0
3.0078938007354736, 325.0
3.0326547622680664, 327.0
3.058384895324707, 323.0
3.084406614303589, 334.0
3.1101186275482178, 327.0
3.136091709136963, 317.0
3.1614043712615967, 314.0
3.1860196590423584, 308.0
3.211486339569092, 301.0
3.2346854209899902, 305.0
3.2590301036834717, 322.0
3.283233165740967, 312.0
3.3076326847076416, 307.0
3.331967353820801, 309.0
3.3593058586120605, 291.0
3.383297920227051, 319.0
3.4064276218414307, 308.0
3.4324135780334473, 304.0
3.456188201904297, 294.0
3.479346752166748, 290.0
3.5024361610412598, 286.0
3.5255093574523926, 288.0
3.54949951171875, 289.0
3.5747463703155518, 289.0
3.598752021789551, 275.0
3.629469156265259, 290.0
3.655531644821167, 293.0
3.6789040565490723, 278.0
3.701809883117676, 297.0
3.7248709201812744, 279.0
3.7464773654937744, 274.0
3.7698135375976562, 290.0
3.7911088466644287, 275.0
3.813133478164673, 266.0
3.835352659225464, 275.0
3.8580410480499268, 260.0
3.8797192573547363, 260.0
3.9053263664245605, 270.0
3.93050217628479, 261.0
3.952770471572876, 269.0
3.977572202682495, 267.0
4.000476360321045, 245.0
4.023050785064697, 251.0
4.043827056884766, 256.0
4.063950061798096, 243.0
4.084636449813843, 244.0
4.105491399765015, 240.0
4.125850677490234, 229.0
4.146030426025391, 226.0
4.166316509246826, 229.0
4.1872498989105225, 238.0
4.208149671554565, 233.0
4.228843927383423, 229.0
4.248779773712158, 229.0
4.268758535385132, 223.0
4.288813591003418, 221.0
4.311590194702148, 229.0
4.332107067108154, 225.0
4.351443767547607, 223.0
4.371265411376953, 220.0
4.390081405639648, 208.0
4.409718036651611, 218.0
4.429239273071289, 210.0
4.447999954223633, 204.0
4.466820240020752, 223.0
4.485493898391724, 213.0
4.504323244094849, 217.0
4.522579669952393, 217.0
4.5408689975738525, 216.0
4.56221079826355, 209.0
4.582040786743164, 218.0
4.602124929428101, 225.0
4.6210949420928955, 230.0
4.640312910079956, 232.0
4.659412860870361, 220.0
4.678735017776489, 232.0
4.698204517364502, 222.0
4.717874050140381, 246.0
4.737154483795166, 238.0
4.757697343826294, 253.0
4.777239561080933, 260.0
4.7965168952941895, 245.0
4.816245079040527, 268.0
4.836827039718628, 260.0
4.85700535774231, 252.0
4.881901264190674, 264.0
4.902055263519287, 256.0
4.929450988769531, 255.0
4.950865745544434, 270.0
4.971459150314331, 276.0
4.992843389511108, 280.0
5.014815330505371, 294.0
5.036803960800171, 304.0
5.0590879917144775, 302.0
5.081561803817749, 301.0
5.102924585342407, 288.0
5.1250059604644775, 287.0
5.146803379058838, 304.0
5.169182300567627, 303.0
5.192699909210205, 317.0
5.2151198387146, 309.0
5.237518548965454, 320.0
5.260651111602783, 332.0
5.284108638763428, 323.0
5.307469129562378, 331.0
5.330608129501343, 327.0
5.354309320449829, 342.0
5.377557992935181, 318.0
5.4008471965789795, 328.0
5.4248576164245605, 334.0
5.449111461639404, 345.0
5.475619792938232, 353.0
5.498470067977905, 336.0
5.5235443115234375, 323.0
5.546642541885376, 325.0
5.570874929428101, 355.0
5.594187259674072, 327.0
5.617092132568359, 327.0
5.6400675773620605, 334.0
5.662946462631226, 327.0
5.684915542602539, 316.0
5.707400560379028, 313.0
5.730749607086182, 320.0
5.753530263900757, 340.0
5.776412725448608, 333.0
5.798105001449585, 319.0
5.820941209793091, 346.0
5.842541456222534, 313.0
5.865144968032837, 335.0
5.887366533279419, 320.0
5.908681869506836, 330.0
5.930048227310181, 332.0
5.955172061920166, 310.0
5.9758384227752686, 317.0
5.997191429138184, 323.0
6.018477439880371, 325.0
6.038712978363037, 308.0
6.0594751834869385, 305.0
6.082517147064209, 309.0
6.103017091751099, 300.0
6.122807502746582, 308.0
6.14290452003479, 312.0
6.162545680999756, 285.0
6.182031631469727, 299.0
6.2013843059539795, 296.0
6.219869136810303, 283.0
6.238753080368042, 276.0
6.257498025894165, 282.0
6.276618242263794, 288.0
6.29548454284668, 280.0
6.314250469207764, 283.0
6.332350254058838, 274.0
6.350358963012695, 285.0
6.368484020233154, 282.0
6.386885643005371, 256.0
6.4048402309417725, 281.0
6.425092935562134, 288.0
6.442798137664795, 275.0
6.460745096206665, 268.0
6.478129148483276, 265.0
6.4951558113098145, 257.0
6.514453411102295, 261.0
6.531369209289551, 262.0
6.548463582992554, 272.0
6.565444231033325, 270.0
6.582295656204224, 262.0
6.599213123321533, 266.0
6.616121292114258, 252.0
6.632878541946411, 267.0
6.649882078170776, 271.0
6.667626857757568, 276.0
6.685153484344482, 268.0
6.702969551086426, 282.0
6.720397472381592, 263.0
6.739099025726318, 266.0
6.757905721664429, 280.0
6.776324272155762, 286.0
6.794744491577148, 296.0
6.813841104507446, 305.0
6.832570314407349, 301.0
6.850660085678101, 273.0
6.86866569519043, 279.0
6.886838436126709, 277.0
6.904655933380127, 264.0
6.921930313110352, 265.0
6.9391090869903564, 261.0
6.961774110794067, 237.0
6.981842517852783, 237.0
6.9975996017456055, 223.0
7.0135657787323, 214.0
7.027979373931885, 202.0
7.043434381484985, 185.0
7.057659149169922, 185.0
7.07306432723999, 188.0
7.087273597717285, 175.0
7.101660490036011, 163.0
7.114764928817749, 152.0
7.129671335220337, 150.0
7.142215967178345, 138.0
7.156067132949829, 127.0
7.168415546417236, 124.0
7.181477069854736, 117.0
7.194029092788696, 123.0
7.206977128982544, 109.0
7.219717502593994, 116.0
7.232422113418579, 124.0
7.244421482086182, 109.0
7.257040977478027, 115.0
7.268547058105469, 113.0
7.280753135681152, 128.0
7.2919793128967285, 118.0
7.304134368896484, 113.0
7.315329551696777, 118.0
7.328203916549683, 125.0
7.339855432510376, 129.0
7.352503061294556, 123.0
7.3641676902771, 128.0
7.37679648399353, 118.0
7.3889360427856445, 127.0
7.402135610580444, 128.0
7.417415380477905, 126.0
7.430768966674805, 133.0
7.443456649780273, 130.0
7.457504749298096, 140.0
7.470245122909546, 120.0
7.484240531921387, 123.0
7.49703311920166, 129.0
7.511024475097656, 132.0
7.524917364120483, 135.0
7.5398101806640625, 141.0
7.554163932800293, 150.0
7.569497108459473, 152.0
7.583750247955322, 176.0
7.599095344543457, 163.0
7.6127636432647705, 179.0
7.6279847621917725, 183.0
7.641017198562622, 158.0
7.655588150024414, 185.0
7.669020891189575, 169.0
7.683208465576172, 178.0
7.697010517120361, 181.0
7.7119140625, 191.0
7.726693391799927, 194.0
7.742023706436157, 172.0
7.755555629730225, 181.0
7.769646883010864, 172.0
7.783068656921387, 168.0
7.7971031665802, 175.0
7.809911727905273, 178.0
7.823882579803467, 177.0
7.836899757385254, 179.0
7.851336240768433, 167.0
7.86348557472229, 159.0
7.876995325088501, 170.0
7.889718294143677, 149.0
7.903186321258545, 179.0
7.915616273880005, 165.0
7.928633451461792, 160.0
7.941437482833862, 179.0
7.955340623855591, 175.0
7.97038197517395, 162.0
7.984947443008423, 174.0
7.997506141662598, 171.0
8.011062860488892, 167.0
8.023825883865356, 161.0
8.037333726882935, 170.0
8.050402879714966, 173.0
8.06412959098816, 180.0
8.076956987380981, 182.0
8.091493844985962, 174.0
8.103806018829346, 167.0
8.117091417312622, 168.0
8.129727840423584, 177.0
8.142901420593262, 153.0
8.155060768127441, 145.0
8.168375015258789, 158.0
8.180625677108765, 170.0
8.193851470947266, 154.0
8.207258939743042, 163.0
8.220088243484497, 166.0
8.23392653465271, 159.0
8.246925115585327, 143.0
8.259010791778564, 154.0
8.271907329559326, 147.0
8.283910036087036, 152.0
8.29605746269226, 132.0
8.307806968688965, 129.0
8.319855213165283, 135.0
8.331178903579712, 127.0
8.34342074394226, 132.0
8.356014966964722, 139.0
8.368568658828735, 143.0
8.380024671554565, 129.0
8.392423391342163, 129.0
8.404270648956299, 146.0
8.418359756469727, 125.0
8.430662393569946, 130.0
8.444210052490234, 131.0
8.456616401672363, 130.0
8.468470335006714, 130.0
8.480961084365845, 133.0
8.494911432266235, 129.0
8.508750915527344, 127.0
8.52187442779541, 140.0
8.534692764282227, 136.0
8.547878503799438, 134.0
8.560306072235107, 126.0
8.572267293930054, 115.0
8.584657907485962, 131.0
8.597312688827515, 120.0
8.609943151473999, 123.0
8.622793436050415, 131.0
8.63507890701294, 127.0
8.647948265075684, 132.0
8.660287141799927, 122.0
8.672379732131958, 124.0
8.684690713882446, 127.0
8.696330308914185, 113.0
8.708698272705078, 116.0
8.720439434051514, 121.0
8.732628345489502, 116.0
8.744370460510254, 105.0
8.756407499313354, 112.0
8.768714666366577, 123.0
8.780811309814453, 115.0
8.792607545852661, 124.0
8.805234909057617, 113.0
8.820754766464233, 125.0
8.832206726074219, 120.0
8.84469747543335, 123.0
8.856229543685913, 109.0
8.868751049041748, 115.0
8.880398511886597, 118.0
8.892241716384888, 119.0
8.904551982879639, 115.0
8.916377544403076, 119.0
8.928300857543945, 118.0
8.940367221832275, 128.0
8.953344106674194, 129.0
8.965512752532959, 137.0
8.978261232376099, 141.0
8.993783712387085, 129.0
9.006542444229126, 127.0
9.01974868774414, 120.0
9.031953811645508, 116.0
9.043482780456543, 106.0
9.055458307266235, 106.0
9.067790746688843, 111.0
9.079779863357544, 106.0
9.093032598495483, 101.0
9.105525970458984, 105.0
9.117356777191162, 104.0
9.129377603530884, 96.0
9.141374826431274, 100.0
9.152773380279541, 96.0
9.163562059402466, 90.0
9.175376892089844, 83.0
9.188363552093506, 97.0
9.199575662612915, 96.0
9.211374044418335, 88.0
9.222540855407715, 90.0
9.234371662139893, 79.0
9.2463698387146, 80.0
9.257383346557617, 80.0
9.268759727478027, 80.0
9.279615879058838, 81.0
9.290948390960693, 79.0
9.301923751831055, 77.0
9.31299638748169, 85.0
9.323852777481079, 78.0
9.334793329238892, 83.0
9.345847606658936, 77.0
9.35648798942566, 75.0
9.368369817733765, 90.0
9.379867315292358, 81.0
9.39093279838562, 92.0
9.402010679244995, 86.0
9.412898540496826, 90.0
9.425363779067993, 90.0
9.435788631439209, 89.0
9.4465172290802, 87.0
9.457686185836792, 82.0
9.46830677986145, 80.0
9.478861808776855, 87.0
9.489867925643921, 82.0
9.50136685371399, 78.0
9.512850046157837, 79.0
9.524362564086914, 72.0
9.53532099723816, 81.0
9.54585075378418, 83.0
9.556698322296143, 82.0
9.567643404006958, 87.0
9.57876706123352, 83.0
9.590374231338501, 80.0
9.60380744934082, 80.0
9.614876508712769, 86.0
9.62619161605835, 105.0
9.636917352676392, 100.0
9.649008750915527, 108.0
9.661245584487915, 116.0
9.672758340835571, 109.0
9.684091567993164, 118.0
9.696112632751465, 121.0
9.708243608474731, 134.0
9.720121145248413, 140.0
9.732176542282104, 135.0
9.744606733322144, 139.0
9.757719278335571, 153.0
9.77045226097107, 165.0
9.783897876739502, 165.0
9.798166036605835, 168.0
9.811300039291382, 179.0
9.825870513916016, 189.0
9.83970046043396, 201.0
9.854046106338501, 216.0
9.874869108200073, 208.0
9.896047592163086, 221.0
9.913890838623047, 245.0
9.930190801620483, 258.0
9.946417808532715, 244.0
9.964962720870972, 278.0
9.982682943344116, 276.0
10.010039329528809, 285.0
10.028695344924927, 294.0
10.046877145767212, 282.0
10.064833402633667, 295.0
10.08351731300354, 311.0
10.101740598678589, 313.0
10.119627952575684, 300.0
10.13715410232544, 283.0
10.154060363769531, 270.0
10.170352220535278, 253.0
10.186733722686768, 249.0
10.20399022102356, 247.0
10.221827507019043, 233.0
10.23886513710022, 238.0
10.255484580993652, 223.0
10.272520065307617, 227.0
10.29009461402893, 235.0
10.308101892471313, 242.0
10.325861692428589, 263.0
10.344581842422485, 273.0
10.363392114639282, 277.0
10.383809328079224, 295.0
10.40424919128418, 285.0
10.425351858139038, 284.0
10.447036743164062, 291.0
10.46762466430664, 299.0
10.488250494003296, 278.0
10.508630990982056, 299.0
10.52910041809082, 289.0
10.549691677093506, 315.0
10.569506406784058, 307.0
10.589669704437256, 304.0
10.610010862350464, 311.0
10.629180669784546, 283.0
10.64954423904419, 302.0
10.66957688331604, 301.0
10.690897941589355, 310.0
10.710305452346802, 306.0
10.72982406616211, 298.0
10.748757600784302, 290.0
10.767529010772705, 285.0
10.786374568939209, 298.0
10.80592155456543, 274.0
10.824424505233765, 282.0
10.843432664871216, 282.0
10.86205530166626, 266.0
10.880658864974976, 264.0
10.900059223175049, 265.0
10.919854879379272, 262.0
10.940319538116455, 266.0
10.960566282272339, 256.0
10.980032682418823, 260.0
11.000648498535156, 266.0
11.027879476547241, 270.0
11.048703908920288, 284.0
11.069092988967896, 281.0
11.090062856674194, 291.0
11.110506534576416, 289.0
11.130708456039429, 279.0
11.150357723236084, 273.0
11.170491456985474, 260.0
11.190776824951172, 263.0
11.209004640579224, 233.0
11.226502418518066, 216.0
11.244015455245972, 218.0
11.260038137435913, 186.0
11.276980638504028, 195.0
11.293378591537476, 179.0
11.308045625686646, 171.0
11.322436571121216, 170.0
11.336967706680298, 174.0
11.350591897964478, 160.0
11.36453127861023, 164.0
11.377887964248657, 139.0
11.39045262336731, 136.0
11.40437936782837, 135.0
11.419639587402344, 132.0
11.432167530059814, 136.0
11.444847822189331, 143.0
11.457548379898071, 145.0
11.469394445419312, 145.0
11.481394290924072, 148.0
11.493508100509644, 149.0
11.505899667739868, 157.0
11.518533945083618, 157.0
11.530397415161133, 162.0
11.542596817016602, 166.0
11.554614305496216, 160.0
11.566665172576904, 176.0
11.579015970230103, 180.0
11.592008590698242, 176.0
11.6051185131073, 193.0
11.617902278900146, 194.0
11.63119626045227, 181.0
11.644268274307251, 180.0
11.656434535980225, 173.0
11.669551849365234, 178.0
11.681864976882935, 177.0
11.694348335266113, 177.0
11.707098484039307, 178.0
11.720016479492188, 187.0
11.732497215270996, 175.0
11.74607253074646, 183.0
11.759126663208008, 202.0
11.77377438545227, 206.0
11.787652254104614, 220.0
11.801816701889038, 210.0
11.815263986587524, 192.0
11.830853700637817, 217.0
11.84497880935669, 207.0
11.858773231506348, 214.0
11.872584581375122, 216.0
11.887126922607422, 223.0
11.902040958404541, 216.0
11.916409730911255, 228.0
11.931156635284424, 230.0
11.946414709091187, 247.0
11.961677074432373, 239.0
11.97737717628479, 235.0
11.997454404830933, 244.0
12.014710187911987, 254.0
12.035145044326782, 253.0
12.053240299224854, 242.0
12.069339036941528, 242.0
12.085605382919312, 255.0
12.10409164428711, 250.0
12.121052026748657, 269.0
12.137614488601685, 273.0
12.15382695198059, 261.0
12.170252084732056, 257.0
12.186657667160034, 262.0
12.203483819961548, 268.0
12.220590829849243, 261.0
12.236735820770264, 260.0
12.253687143325806, 267.0
12.26991057395935, 252.0
12.28568959236145, 261.0
12.302454471588135, 246.0
12.31810736656189, 234.0
12.333366394042969, 229.0
12.348541021347046, 230.0
12.364093780517578, 227.0
12.379019260406494, 221.0
12.394479513168335, 225.0
12.41051697731018, 222.0
12.42974066734314, 239.0
12.447474002838135, 255.0
12.463555097579956, 253.0
12.480317831039429, 253.0
12.496820449829102, 253.0
12.512588262557983, 232.0
12.528798341751099, 252.0
12.544767141342163, 244.0
12.560895442962646, 250.0
12.577070236206055, 258.0
12.593245267868042, 249.0
12.6114182472229, 262.0
12.627800941467285, 256.0
12.64435338973999, 256.0
12.660781621932983, 255.0
12.677211046218872, 258.0
12.695131540298462, 266.0
12.712336778640747, 252.0
12.728744268417358, 251.0
12.744462966918945, 248.0
12.7603759765625, 232.0
12.77599024772644, 242.0
12.790743589401245, 221.0
12.807214736938477, 229.0
12.823182821273804, 236.0
12.838675022125244, 227.0
12.854377746582031, 233.0
12.86959958076477, 223.0
12.884746313095093, 227.0
12.90006160736084, 231.0
12.915045261383057, 225.0
12.930682182312012, 239.0
12.946391820907593, 228.0
12.962259531021118, 247.0
12.978392124176025, 251.0
12.996309518814087, 246.0
13.011427640914917, 241.0
13.026221990585327, 229.0
13.042914628982544, 231.0
13.063384532928467, 236.0
13.078895568847656, 241.0
13.094167947769165, 226.0
13.109586715698242, 231.0
13.124422311782837, 237.0
13.140180349349976, 227.0
13.155195236206055, 230.0
13.17033576965332, 234.0
13.185434579849243, 215.0
13.200476884841919, 206.0
13.215832710266113, 221.0
13.230859756469727, 223.0
13.24608302116394, 215.0
13.260859966278076, 220.0
13.275190830230713, 218.0
13.291102886199951, 210.0
13.305615663528442, 216.0
13.319945096969604, 190.0
13.333224058151245, 186.0
13.34701132774353, 189.0
13.361896514892578, 212.0
13.376298189163208, 205.0
13.390379428863525, 210.0
13.404794216156006, 202.0
13.420391082763672, 205.0
13.436699867248535, 245.0
13.452211856842041, 248.0
13.468250274658203, 239.0
13.48475432395935, 266.0
13.502355813980103, 289.0
13.519829034805298, 311.0
13.537395715713501, 290.0
13.556834936141968, 309.0
13.577568054199219, 318.0
13.594187259674072, 283.0
13.611528396606445, 288.0
13.627737760543823, 299.0
13.643991708755493, 281.0
13.65999150276184, 284.0
13.676385641098022, 283.0
13.692722797393799, 283.0
13.708689212799072, 269.0
13.72471022605896, 274.0
13.741805076599121, 288.0
13.759486198425293, 300.0
13.775850057601929, 284.0
13.791932582855225, 282.0
13.807590246200562, 264.0
13.823400497436523, 261.0
13.838662385940552, 247.0
13.85451865196228, 264.0
13.87027382850647, 258.0
13.885273694992065, 253.0
13.90070366859436, 257.0
13.916036605834961, 258.0
13.930905103683472, 244.0
13.946685075759888, 264.0
13.96250867843628, 264.0
13.977365016937256, 253.0
13.992408037185669, 247.0
14.00709867477417, 236.0
14.021639347076416, 237.0
14.036086559295654, 229.0
14.050809621810913, 233.0
14.071758508682251, 240.0
14.085875272750854, 226.0
14.099867105484009, 221.0
14.11494755744934, 206.0
14.129647493362427, 214.0
14.143318176269531, 222.0
14.157427310943604, 227.0
14.172225713729858, 218.0
14.186885595321655, 214.0
14.204121589660645, 233.0
14.218864917755127, 215.0
14.234370946884155, 230.0
14.248759031295776, 229.0
14.26410698890686, 239.0
14.279050827026367, 218.0
14.294348239898682, 229.0
14.310258150100708, 234.0
14.326367616653442, 245.0
14.341704368591309, 245.0
14.357160091400146, 235.0
14.373111009597778, 246.0
14.389256238937378, 248.0
14.40467643737793, 263.0
14.422446489334106, 259.0
14.43803596496582, 258.0
14.454746961593628, 261.0
14.470680713653564, 249.0
14.486396074295044, 248.0
14.502499341964722, 250.0
14.519049644470215, 264.0
14.534781455993652, 257.0
14.55083703994751, 256.0
14.566762208938599, 265.0
14.583524703979492, 261.0
14.599629640579224, 262.0
14.617115497589111, 253.0
14.63407278060913, 250.0
14.650954484939575, 267.0
14.669305324554443, 294.0
14.686782360076904, 276.0
14.705071449279785, 291.0
14.724547386169434, 296.0
14.747337818145752, 302.0
14.76709532737732, 292.0
14.786451816558838, 311.0
14.806095361709595, 298.0
14.826074600219727, 322.0
14.846859216690063, 312.0
14.866799116134644, 295.0
14.887085199356079, 305.0
14.907849073410034, 301.0
14.928383827209473, 305.0
14.948429822921753, 301.0
14.968828439712524, 301.0
14.988905906677246, 316.0
15.009446144104004, 315.0
15.0298490524292, 300.0
15.049636602401733, 287.0
15.06898832321167, 294.0
15.09330701828003, 285.0
15.114493608474731, 294.0
15.134141683578491, 298.0
15.152825593948364, 275.0
15.172749996185303, 277.0
15.19194769859314, 276.0
15.211483716964722, 292.0
15.23023247718811, 266.0
15.2499418258667, 279.0
15.2689208984375, 275.0
15.287900686264038, 267.0
15.306007146835327, 263.0
15.324488401412964, 277.0
15.341759204864502, 259.0
15.359445095062256, 271.0
15.377437353134155, 271.0
15.394609689712524, 263.0
15.411242723464966, 255.0
15.429543495178223, 268.0
15.445462942123413, 259.0
15.461178541183472, 247.0
15.476309299468994, 239.0
15.49231767654419, 251.0
15.50752568244934, 237.0
15.524052381515503, 264.0
15.53945255279541, 244.0
15.55527639389038, 232.0
15.570769548416138, 257.0
15.586410522460938, 237.0
15.60342288017273, 245.0
15.618911027908325, 238.0
15.634276628494263, 237.0
15.649444341659546, 235.0
15.663837671279907, 211.0
15.679795026779175, 235.0
15.69498610496521, 216.0
15.709816932678223, 220.0
15.723429918289185, 207.0
15.737282514572144, 216.0
15.750681400299072, 191.0
15.763906955718994, 196.0
15.777803182601929, 184.0
15.790181159973145, 179.0
15.802715301513672, 167.0
15.814931631088257, 160.0
15.827408790588379, 164.0
15.839704751968384, 152.0
15.851742267608643, 148.0
15.863449811935425, 160.0
15.875147581100464, 155.0
15.88655424118042, 144.0
15.898188352584839, 133.0
15.90902853012085, 129.0
15.921374797821045, 115.0
15.939615249633789, 120.0
15.95816969871521, 102.0
15.971751689910889, 102.0
15.981813192367554, 119.0
15.991461515426636, 106.0
16.001263856887817, 108.0
16.01536226272583, 99.0
16.02504277229309, 101.0
16.034459114074707, 90.0
16.043941259384155, 96.0
16.053276538848877, 97.0
16.06314754486084, 102.0
16.072564840316772, 96.0
16.08231019973755, 110.0
16.093459606170654, 102.0
16.105880975723267, 100.0
16.11563014984131, 93.0
16.125187158584595, 110.0
16.134556770324707, 99.0
16.14418649673462, 107.0
16.153509378433228, 96.0
16.162780284881592, 99.0
16.1725013256073, 98.0
16.182724952697754, 102.0
16.19224214553833, 112.0
16.201659202575684, 112.0
16.21243119239807, 113.0
16.221977949142456, 104.0
16.231501579284668, 107.0
16.241002321243286, 107.0
16.250651121139526, 111.0
16.260249614715576, 114.0
16.270052909851074, 115.0
16.28009557723999, 111.0
16.289790153503418, 104.0
16.2997145652771, 105.0
16.30963397026062, 95.0
16.31924295425415, 104.0
16.329129934310913, 101.0
16.338391065597534, 81.0
16.347636222839355, 72.0
16.356643199920654, 58.0
16.36596131324768, 62.0
16.375495195388794, 60.0
16.384916305541992, 61.0
16.39534044265747, 76.0
16.405175924301147, 76.0
16.4171085357666, 85.0
16.42739200592041, 86.0
16.438209056854248, 103.0
16.450154304504395, 143.0
16.46272897720337, 153.0
16.47570013999939, 175.0
16.48935079574585, 215.0
16.50294852256775, 216.0
16.516648054122925, 212.0
16.530406951904297, 219.0
16.544464588165283, 231.0
16.558260440826416, 218.0
16.57318115234375, 227.0
16.588390827178955, 218.0
16.605364561080933, 239.0
16.619980335235596, 226.0
16.635286331176758, 220.0
16.649075746536255, 219.0
16.663503408432007, 222.0
16.677663326263428, 229.0
16.69288969039917, 229.0
16.706583976745605, 215.0
16.721710920333862, 229.0
16.73660135269165, 245.0
16.7522029876709, 242.0
16.76661777496338, 235.0
16.781043529510498, 227.0
16.794715881347656, 225.0
16.80911350250244, 226.0
16.82304048538208, 234.0
16.837059497833252, 220.0
16.850472927093506, 213.0
16.86607265472412, 218.0
16.8799250125885, 228.0
16.894389390945435, 215.0
16.909184217453003, 231.0
16.92458486557007, 235.0
16.93915104866028, 236.0
16.95447039604187, 250.0
16.968852758407593, 240.0
16.984513521194458, 256.0
16.99919056892395, 253.0
17.014299154281616, 253.0
17.028951168060303, 253.0
17.044483423233032, 257.0
17.059138298034668, 248.0
17.074537754058838, 254.0
17.088393688201904, 237.0
17.10315704345703, 227.0
17.1202073097229, 215.0
17.13540482521057, 206.0
17.148613214492798, 212.0
17.16191291809082, 204.0
17.174810886383057, 198.0
17.188688039779663, 211.0
17.201232433319092, 203.0
17.21493363380432, 203.0
17.22767925262451, 192.0
17.241690158843994, 184.0
17.258017778396606, 208.0
17.27319884300232, 230.0
17.28716778755188, 220.0
17.30054497718811, 203.0
17.31312918663025, 196.0
17.326626300811768, 211.0
17.34009075164795, 219.0
17.354020833969116, 220.0
17.367892026901245, 211.0
17.381823301315308, 214.0
17.395140647888184, 197.0
17.409425258636475, 223.0
17.4248628616333, 224.0
17.439786672592163, 220.0
17.455227375030518, 212.0
17.470118284225464, 225.0
17.484161615371704, 218.0
17.49917721748352, 209.0
17.51444172859192, 230.0
17.529483318328857, 238.0
17.54418635368347, 246.0
17.55965828895569, 216.0
17.574424266815186, 229.0
17.589601278305054, 246.0
17.604238986968994, 246.0
17.620866060256958, 253.0
17.635671854019165, 256.0
17.650693893432617, 255.0
17.665335655212402, 251.0
17.680605173110962, 241.0
17.696025848388672, 234.0
17.71116876602173, 229.0
17.726478815078735, 216.0
17.741172313690186, 233.0
17.75524139404297, 229.0
17.770806789398193, 235.0
17.786285400390625, 227.0
17.800880432128906, 205.0
17.814375162124634, 196.0
17.828588008880615, 207.0
17.841310262680054, 199.0
17.855225563049316, 196.0
17.868684768676758, 185.0
17.881863594055176, 190.0
17.893906593322754, 191.0
17.906432151794434, 182.0
17.91847825050354, 194.0
17.931140422821045, 205.0
17.943890810012817, 229.0
17.958696842193604, 212.0
17.971393823623657, 204.0
17.988767862319946, 221.0
18.001856565475464, 218.0
18.015716075897217, 225.0
18.035334825515747, 226.0
18.049763679504395, 212.0
18.062930822372437, 232.0
18.076988697052002, 231.0
18.09045934677124, 223.0
18.10485005378723, 209.0
18.119881629943848, 221.0
18.13995099067688, 218.0
18.154006004333496, 233.0
18.167444705963135, 221.0
18.179753065109253, 200.0
18.19285488128662, 198.0
18.20531415939331, 209.0
18.21900725364685, 206.0
18.23284077644348, 202.0
18.246026515960693, 202.0
18.25834345817566, 206.0
18.271520376205444, 203.0
18.28374195098877, 196.0
18.297513246536255, 193.0
18.31042981147766, 186.0
18.323522567749023, 194.0
18.335789442062378, 202.0
18.348751306533813, 201.0
18.36115789413452, 203.0
18.37532925605774, 210.0
18.388067722320557, 209.0
18.401287078857422, 199.0
18.413544416427612, 194.0
18.428855657577515, 196.0
18.442152738571167, 209.0
18.45493245124817, 204.0
18.468584060668945, 216.0
18.481239080429077, 212.0
18.495458364486694, 225.0
18.50798487663269, 207.0
18.52140784263611, 198.0
18.534411430358887, 222.0
18.548230409622192, 206.0
18.561274766921997, 214.0
18.575752019882202, 220.0
18.59916853904724, 231.0
18.61495041847229, 238.0
18.629138708114624, 224.0
18.644009828567505, 233.0
18.657081604003906, 210.0
18.671265363693237, 233.0
18.684266090393066, 222.0
18.69802737236023, 213.0
18.71096420288086, 212.0
18.72571063041687, 206.0
18.738637447357178, 211.0
18.75185751914978, 207.0
18.764679193496704, 213.0
18.778432846069336, 214.0
18.791818380355835, 207.0
18.80530548095703, 205.0
18.817681789398193, 194.0
18.830671310424805, 192.0
18.842820167541504, 198.0
18.855971813201904, 205.0
18.868195295333862, 189.0
18.88102388381958, 186.0
18.892915964126587, 176.0
18.905402898788452, 178.0
18.91693925857544, 182.0
18.929603099822998, 169.0
18.941784858703613, 171.0
18.954320192337036, 173.0
18.965864419937134, 171.0
18.97805666923523, 156.0
18.989651679992676, 173.0
19.00152063369751, 164.0
19.01613140106201, 166.0
19.02772879600525, 180.0
19.04006266593933, 174.0
19.051196336746216, 171.0
19.06326198577881, 162.0
19.074909687042236, 165.0
19.087939739227295, 172.0
19.099178314208984, 168.0
19.111453533172607, 180.0
19.12273621559143, 174.0
19.134824752807617, 170.0
19.150181531906128, 179.0
19.163975715637207, 179.0
19.17574381828308, 186.0
19.18907618522644, 182.0
19.200490474700928, 185.0
19.212594032287598, 169.0
19.224666357040405, 164.0
19.236051321029663, 152.0
19.246854066848755, 147.0
19.258888483047485, 143.0
19.26893377304077, 133.0
19.27998685836792, 136.0
19.29026508331299, 136.0
19.301549911499023, 144.0
19.31305766105652, 157.0
19.325081825256348, 171.0
19.336501121520996, 179.0
19.349912643432617, 210.0
19.362226963043213, 204.0
19.37565565109253, 211.0
19.388243913650513, 219.0
19.402766227722168, 227.0
19.417913913726807, 228.0
19.431402444839478, 207.0
19.445181608200073, 233.0
19.46032214164734, 252.0
19.47481608390808, 262.0
19.490666389465332, 281.0
19.507164239883423, 299.0
19.52439856529236, 312.0
19.54153847694397, 317.0
19.562808752059937, 333.0
19.580854892730713, 334.0
19.599143505096436, 337.0
19.61810326576233, 336.0
19.636597394943237, 335.0
19.655302047729492, 353.0
19.673919200897217, 350.0
19.691835641860962, 338.0
19.71012783050537, 342.0
19.728304624557495, 345.0
19.74695897102356, 338.0
19.766323804855347, 352.0
19.785487174987793, 337.0
19.8041775226593, 356.0
19.82268762588501, 332.0
19.839539289474487, 321.0
19.85635733604431, 300.0
19.871962070465088, 285.0
19.887401819229126, 247.0
19.901806116104126, 259.0
19.91662836074829, 263.0
19.931747436523438, 278.0
19.94570755958557, 238.0
19.958674430847168, 227.0
19.97304368019104, 192.0
19.984268188476562, 177.0
19.996015787124634, 151.0
20.00693678855896, 165.0
20.018299341201782, 148.0
20.028525829315186, 149.0
20.03938102722168, 133.0
20.04933500289917, 127.0
20.059837341308594, 114.0
20.0712308883667, 111.0
20.082722425460815, 116.0
20.092341661453247, 119.0
20.104366064071655, 123.0
20.11407995223999, 128.0
20.124674320220947, 107.0
20.134193181991577, 105.0
20.14469289779663, 91.0
20.155092477798462, 115.0
20.169812440872192, 135.0
20.181254386901855, 140.0
20.19303560256958, 144.0
20.204245805740356, 148.0
20.219583749771118, 138.0
20.230661630630493, 143.0
20.243934631347656, 156.0
20.2558376789093, 167.0
20.268553256988525, 174.0
20.281168937683105, 186.0
20.29391574859619, 181.0
20.306129217147827, 178.0
20.31886315345764, 181.0
20.3316810131073, 174.0
20.34548854827881, 176.0
20.357653617858887, 169.0
20.370687007904053, 169.0
20.383572101593018, 175.0
20.396873712539673, 162.0
20.408381700515747, 159.0
20.422467947006226, 173.0
20.43359637260437, 159.0
20.445232152938843, 140.0
20.455191135406494, 108.0
20.465688943862915, 100.0
20.475362300872803, 95.0
20.485721111297607, 102.0
20.494951725006104, 93.0
20.50625443458557, 66.0
20.515907764434814, 62.0
20.527360677719116, 74.0
20.536627292633057, 89.0
20.54836106300354, 96.0
20.558181762695312, 105.0
20.568889379501343, 105.0
20.578848838806152, 104.0
20.58922815322876, 108.0
20.598912715911865, 111.0
20.60982346534729, 125.0
20.619973182678223, 109.0
20.630033016204834, 90.0
20.63913893699646, 73.0
20.651117086410522, 74.0
20.659860849380493, 62.0
20.67247223854065, 61.0
20.682695627212524, 43.0
20.697450399398804, 29.0
20.707396745681763, 25.0
20.716455698013306, 30.0
20.72515058517456, 27.0
20.73604941368103, 34.0
20.744534492492676, 36.0
20.75426936149597, 42.0
20.76344347000122, 60.0
20.77637553215027, 67.0
20.786283493041992, 79.0
20.798503160476685, 104.0
20.810749292373657, 123.0
20.825462341308594, 145.0
20.839046716690063, 170.0
20.854260444641113, 178.0
20.869317770004272, 191.0
20.88533592224121, 223.0
20.901586294174194, 246.0
20.919835805892944, 246.0
20.939297199249268, 275.0
20.95853352546692, 265.0
20.97662901878357, 258.0
20.994834184646606, 261.0
21.012601375579834, 279.0
21.03095030784607, 291.0
21.04830026626587, 286.0
21.066224813461304, 298.0
21.083502054214478, 305.0
21.100661277770996, 289.0
21.12147283554077, 319.0
21.138910055160522, 317.0
21.15706706047058, 334.0
21.17876672744751, 317.0
21.19908905029297, 335.0
21.21798062324524, 318.0
21.235710859298706, 329.0
21.25417184829712, 317.0
21.272599458694458, 330.0
21.29194474220276, 328.0
21.309535264968872, 308.0
21.32841181755066, 322.0
21.345489263534546, 298.0
21.363083124160767, 305.0
21.380181312561035, 302.0
21.398622274398804, 294.0
21.417562007904053, 296.0
21.434268951416016, 295.0
21.450785398483276, 280.0
21.467456817626953, 283.0
21.483405113220215, 280.0
21.49935007095337, 277.0
21.516056060791016, 280.0
21.53225564956665, 278.0
21.547197818756104, 256.0
21.563223838806152, 263.0
21.577828407287598, 255.0
21.593229293823242, 246.0
21.608091592788696, 242.0
21.623809099197388, 243.0
21.64194416999817, 242.0
21.657479286193848, 237.0
21.671496152877808, 226.0
21.68620228767395, 219.0
21.700047492980957, 220.0
21.71509337425232, 228.0
21.730008363723755, 229.0
21.744315147399902, 226.0
21.75900888442993, 222.0
21.77369475364685, 213.0
21.787899017333984, 224.0
21.801448345184326, 215.0
21.815809965133667, 193.0
21.82943630218506, 219.0
21.843578100204468, 208.0
21.857766151428223, 213.0
21.87263321876526, 214.0
21.886466026306152, 225.0
21.90056610107422, 200.0
21.914339065551758, 218.0
21.92899179458618, 201.0
21.943755388259888, 208.0
21.958520650863647, 206.0
21.972800493240356, 193.0
21.986967086791992, 187.0
22.00208353996277, 196.0
22.017139673233032, 197.0
22.033797025680542, 191.0
22.047911405563354, 175.0
22.061922311782837, 197.0
22.07684302330017, 195.0
22.09063482284546, 195.0
22.104897260665894, 196.0
22.119250059127808, 197.0
22.13397192955017, 202.0
22.14833974838257, 198.0
22.16353130340576, 191.0
22.17803716659546, 199.0
22.198542833328247, 182.0
22.215150833129883, 202.0
22.230717658996582, 197.0
22.246238470077515, 202.0
22.262661695480347, 211.0
22.278691291809082, 201.0
22.296194791793823, 228.0
22.312870264053345, 219.0
22.33085346221924, 222.0
22.348336696624756, 222.0
22.36640763282776, 217.0
22.384182691574097, 229.0
22.401708602905273, 225.0
22.42107915878296, 235.0
22.438886880874634, 226.0
22.455949544906616, 209.0
22.47460103034973, 226.0
22.491853952407837, 216.0
22.50963282585144, 198.0
22.52676010131836, 200.0
22.54525327682495, 207.0
22.562512159347534, 201.0
22.580395221710205, 202.0
22.597957849502563, 201.0
22.618071794509888, 208.0
22.63402009010315, 213.0
22.650342226028442, 213.0
22.667298316955566, 209.0
22.684988021850586, 230.0
22.70195198059082, 256.0
22.719915628433228, 272.0
22.739466667175293, 296.0
22.760379552841187, 335.0
22.781738996505737, 352.0
22.803956031799316, 371.0
22.82423162460327, 355.0
22.844919204711914, 333.0
22.862917184829712, 303.0
22.880892992019653, 301.0
22.898232460021973, 298.0
22.9143123626709, 267.0
22.93184471130371, 266.0
22.947277784347534, 252.0
22.961091995239258, 212.0
22.9756121635437, 192.0
22.98789381980896, 182.0
23.0016872882843, 171.0
23.01298236846924, 157.0
23.026059865951538, 175.0
23.037823915481567, 182.0
23.0506112575531, 159.0
23.06159806251526, 142.0
23.07309055328369, 137.0
23.08387804031372, 137.0
23.09593653678894, 124.0
23.107266187667847, 127.0
23.11937975883484, 116.0
23.12956738471985, 106.0
23.14088797569275, 101.0
23.151009559631348, 97.0
23.162770748138428, 102.0
23.172526597976685, 72.0
23.182708024978638, 62.0
23.19187045097351, 62.0
23.202558517456055, 57.0
23.213042736053467, 53.0
23.225273609161377, 60.0
23.234753131866455, 57.0
23.245625734329224, 77.0
23.254969120025635, 73.0
23.26575016975403, 70.0
23.275094985961914, 73.0
23.285582065582275, 62.0
23.29484462738037, 65.0
23.30622148513794, 59.0
23.31632924079895, 66.0
23.326579093933105, 59.0
23.335723161697388, 65.0
23.34588623046875, 73.0
23.35584330558777, 86.0
23.36673378944397, 86.0
23.376280546188354, 87.0
23.386900424957275, 103.0
23.39664626121521, 89.0
23.408371925354004, 87.0
23.419769048690796, 104.0
23.430800437927246, 100.0
23.441283464431763, 93.0
23.453245401382446, 97.0
23.463524341583252, 90.0
23.474120616912842, 82.0
23.485041618347168, 95.0
23.495667934417725, 91.0
23.506744146347046, 96.0
23.518014430999756, 86.0
23.52805256843567, 80.0
23.53830337524414, 73.0
23.547998428344727, 72.0
23.55867314338684, 67.0
23.568121194839478, 60.0
23.578566789627075, 55.0
23.58776617050171, 55.0
23.5974760055542, 46.0
23.606667280197144, 43.0
23.616329431533813, 45.0
23.625619411468506, 47.0
23.635077714920044, 40.0
23.64369797706604, 42.0
23.654494524002075, 43.0
23.664183855056763, 42.0
23.673018217086792, 43.0
23.682438611984253, 39.0
23.691137552261353, 37.0
23.701481103897095, 38.0
23.710198163986206, 35.0
23.720492124557495, 37.0
23.72924828529358, 40.0
23.738961458206177, 46.0
23.74771237373352, 39.0
23.757367849349976, 51.0
23.766385555267334, 55.0
23.77655053138733, 52.0
23.785662412643433, 48.0
23.79553723335266, 52.0
23.804661750793457, 55.0
23.814634799957275, 59.0
23.824843883514404, 63.0
23.836642026901245, 67.0
23.846148252487183, 83.0
23.85680341720581, 80.0
23.867204427719116, 74.0
23.878774404525757, 90.0
23.888670206069946, 100.0
23.899754285812378, 91.0
23.90980577468872, 96.0
23.920849323272705, 100.0
23.931963205337524, 102.0
23.943018674850464, 118.0
23.954259157180786, 124.0
23.966069221496582, 126.0
23.97804617881775, 154.0
23.99052882194519, 158.0
24.002988576889038, 162.0
24.015995264053345, 183.0
24.02892303466797, 187.0
24.043253898620605, 197.0
24.056790590286255, 202.0
24.072083711624146, 219.0
24.086523056030273, 222.0
24.10146951675415, 224.0
24.117151737213135, 262.0
24.136420488357544, 239.0
24.15304446220398, 295.0
24.172828912734985, 253.0
24.189194440841675, 261.0
24.20599627494812, 286.0
24.2231342792511, 297.0
24.2448627948761, 288.0
24.26222062110901, 292.0
24.281518936157227, 323.0
24.300493478775024, 311.0
24.32081389427185, 333.0
24.34034276008606, 331.0
24.361028909683228, 328.0
24.381932973861694, 337.0
24.40224266052246, 333.0
24.424113273620605, 340.0
24.444851875305176, 333.0
24.464599132537842, 340.0
24.484248876571655, 322.0
24.503480911254883, 329.0
24.52334475517273, 328.0
24.541473865509033, 307.0
24.559342622756958, 305.0
24.578249216079712, 323.0
24.596781730651855, 304.0
24.614996194839478, 321.0
24.633907556533813, 314.0
24.652470350265503, 318.0
24.671123504638672, 296.0
24.689242839813232, 310.0
24.706769466400146, 296.0
24.724849462509155, 323.0
24.743269443511963, 310.0
24.76007056236267, 298.0
24.777802228927612, 300.0
24.79433250427246, 287.0
24.8128719329834, 287.0
24.829481601715088, 288.0
24.84607768058777, 278.0
24.863016843795776, 268.0
24.879750728607178, 257.0
24.895409107208252, 255.0
24.910959720611572, 248.0
24.926893949508667, 265.0
24.941961765289307, 238.0
24.956899642944336, 216.0
24.970449447631836, 206.0
24.98557734489441, 190.0
24.999638080596924, 186.0
25.013487577438354, 187.0
25.027035236358643, 181.0
25.039281845092773, 169.0
25.051453828811646, 178.0
25.063451051712036, 155.0
25.076021909713745, 150.0
25.08825182914734, 165.0
25.099547863006592, 149.0
25.112619876861572, 154.0
25.123913526535034, 154.0
25.13619375228882, 142.0
25.149044275283813, 144.0
25.161213397979736, 151.0
25.172433614730835, 146.0
25.18438482284546, 149.0
25.19535803794861, 151.0
25.20712924003601, 147.0
25.218371629714966, 146.0
25.229965925216675, 134.0
25.247603178024292, 145.0
25.261123180389404, 149.0
25.273006200790405, 142.0
25.285725831985474, 146.0
25.3004047870636, 148.0
25.31257963180542, 164.0
25.32335662841797, 151.0
25.336639881134033, 168.0
25.347728490829468, 146.0
25.35910415649414, 144.0
25.370643615722656, 150.0
25.38284707069397, 154.0
25.393876791000366, 139.0
25.40577983856201, 133.0
25.41919231414795, 140.0
25.430870532989502, 141.0
25.44441795349121, 134.0
25.455731868743896, 140.0
25.467053413391113, 126.0
25.478208541870117, 124.0
25.490092754364014, 120.0
25.500818490982056, 104.0
25.512101888656616, 102.0
25.522424936294556, 75.0
25.533644437789917, 73.0
25.543976306915283, 90.0
25.55474829673767, 76.0
25.56528639793396, 79.0
25.576799154281616, 61.0
25.58694863319397, 70.0
25.597749710083008, 62.0
25.60762596130371, 66.0
25.618260622024536, 51.0
25.62891983985901, 59.0
25.641376972198486, 72.0
25.651361227035522, 78.0
25.66238307952881, 106.0
25.673006296157837, 98.0
25.6841402053833, 108.0
25.694878816604614, 108.0
25.70738387107849, 103.0
25.718183994293213, 119.0
25.73070979118347, 109.0
25.741384267807007, 99.0
25.7528338432312, 115.0
25.763351440429688, 104.0
25.774983644485474, 103.0
25.785615921020508, 109.0
25.796581506729126, 108.0
25.806934118270874, 110.0
25.817606925964355, 107.0
25.82792592048645, 114.0
25.840378761291504, 116.0
25.850471258163452, 114.0
25.861971378326416, 116.0
25.871676445007324, 104.0
25.882263660430908, 97.0
25.893463850021362, 97.0
25.905624628067017, 91.0
25.915668487548828, 81.0
25.927809953689575, 66.0
25.937766551971436, 78.0
25.9479923248291, 70.0
25.957499742507935, 82.0
25.96864676475525, 83.0
25.97853660583496, 97.0
25.990372896194458, 93.0
26.000062704086304, 93.0
26.010777235031128, 104.0
26.020992517471313, 102.0
26.033390283584595, 108.0
26.043817043304443, 118.0
26.056390285491943, 113.0
26.067236185073853, 128.0
26.07897686958313, 131.0
26.090192794799805, 148.0
26.102511644363403, 142.0
26.114120960235596, 137.0
26.12624502182007, 115.0
26.13790273666382, 118.0
26.150426387786865, 114.0
26.161224842071533, 113.0
26.172708749771118, 99.0
26.182809591293335, 111.0
26.19348907470703, 92.0
26.203279733657837, 84.0
26.213640451431274, 80.0
26.22336435317993, 87.0
26.234700679779053, 93.0
26.24484372138977, 92.0
26.25872540473938, 88.0
26.273985147476196, 109.0
26.28611159324646, 123.0
26.29716968536377, 111.0
26.30945086479187, 101.0
26.320039749145508, 100.0
26.33237624168396, 108.0
26.34343671798706, 117.0
26.356706619262695, 133.0
26.368462085723877, 129.0
26.381919145584106, 137.0
26.39441752433777, 146.0
26.407037019729614, 136.0
26.420258045196533, 153.0
26.4327290058136, 127.0
26.44362735748291, 136.0
26.45526432991028, 127.0
26.46596074104309, 124.0
26.47683358192444, 105.0
26.486929655075073, 108.0
26.497687816619873, 98.0
26.507919788360596, 100.0
26.51935124397278, 91.0
26.53035068511963, 112.0
26.542397260665894, 84.0
26.553182363510132, 88.0
26.56439447402954, 86.0
26.574347496032715, 80.0
26.586148500442505, 75.0
26.595425128936768, 61.0
26.605666875839233, 62.0
26.61509895324707, 68.0
26.626078367233276, 62.0
26.635762929916382, 85.0
26.646682739257812, 79.0
26.656497716903687, 86.0
26.66937494277954, 106.0
26.67946195602417, 115.0
26.69121551513672, 122.0
26.701741456985474, 123.0
26.71337866783142, 109.0
26.724059104919434, 119.0
26.73637843132019, 111.0
26.746420860290527, 99.0
26.758375644683838, 116.0
26.76897144317627, 133.0
26.780982494354248, 129.0
26.79264235496521, 124.0
26.80388331413269, 111.0
26.814821481704712, 113.0
26.826924085617065, 111.0
26.837666511535645, 122.0
26.8503839969635, 129.0
26.86133074760437, 136.0
26.873021364212036, 127.0
26.883667945861816, 122.0
26.894914388656616, 128.0
26.905269384384155, 116.0
26.91695237159729, 120.0
26.927904844284058, 141.0
26.940382719039917, 142.0
26.952633380889893, 149.0
26.965285062789917, 164.0
26.97783350944519, 160.0
26.9903461933136, 170.0
27.00222897529602, 161.0
27.014309406280518, 158.0
27.02601432800293, 146.0
27.038256883621216, 137.0
27.04967951774597, 142.0
27.0625958442688, 138.0
27.07421064376831, 153.0
27.086421728134155, 151.0
27.09787392616272, 146.0
27.1097514629364, 133.0
27.12064218521118, 128.0
27.134906768798828, 135.0
27.147473096847534, 121.0
27.16008234024048, 124.0
27.171438932418823, 120.0
27.183981895446777, 131.0
27.195130348205566, 117.0
27.208383321762085, 121.0
27.21959614753723, 123.0
27.232430458068848, 113.0
27.242816925048828, 99.0
27.253669500350952, 82.0
27.263787031173706, 80.0
27.277199506759644, 79.0
27.28915524482727, 84.0
27.300113916397095, 78.0
27.3106050491333, 80.0
27.32155418395996, 87.0
27.33202290534973, 85.0
27.343854188919067, 88.0
27.354316234588623, 94.0
27.366369247436523, 95.0
27.37685537338257, 108.0
27.387803554534912, 107.0
27.398261070251465, 108.0
27.410375118255615, 114.0
27.421199560165405, 104.0
27.431992530822754, 97.0
27.442511320114136, 102.0
27.45249652862549, 107.0
27.463456869125366, 106.0
27.473673582077026, 102.0
27.48537588119507, 115.0
27.495235681533813, 107.0
27.50575089454651, 96.0
27.5151629447937, 94.0
27.525394678115845, 86.0
27.534467458724976, 85.0
27.544670820236206, 86.0
27.554149389266968, 96.0
27.564634084701538, 94.0
27.573615074157715, 83.0
27.583369970321655, 83.0
27.59289836883545, 77.0
27.602898597717285, 93.0
27.611897468566895, 89.0
27.621838092803955, 82.0
27.63165020942688, 88.0
27.643296241760254, 97.0
27.654144287109375, 100.0
27.664795637130737, 95.0
27.67503070831299, 105.0
27.687654972076416, 98.0
27.69883632659912, 108.0
27.709858179092407, 96.0
27.721272945404053, 116.0
27.732990026474, 99.0
27.745458126068115, 116.0
27.75874614715576, 154.0
27.771235704421997, 170.0
27.78569984436035, 202.0
27.799479961395264, 200.0
27.813107013702393, 196.0
27.825961351394653, 194.0
27.84017539024353, 160.0
27.850618362426758, 109.0
27.862382650375366, 94.0
27.871946811676025, 79.0
27.883145809173584, 83.0
27.89221501350403, 80.0
27.902596473693848, 69.0
27.91149091720581, 60.0
27.921462297439575, 37.0
27.93008804321289, 35.0
27.941139936447144, 43.0
27.94999623298645, 42.0
27.96037530899048, 45.0
27.968928813934326, 24.0
27.979488372802734, 21.0
27.988595485687256, 25.0
27.999201774597168, 31.0
28.009403944015503, 30.0
28.01779866218567, 30.0
28.027402877807617, 24.0
28.03960394859314, 21.0
28.048418521881104, 26.0
28.057191371917725, 32.0
28.06631851196289, 35.0
28.07455062866211, 35.0
28.08390498161316, 34.0
28.09205436706543, 38.0
28.102835416793823, 42.0
28.11125349998474, 45.0
28.120397806167603, 43.0
28.128559827804565, 39.0
28.139103889465332, 37.0
28.14727020263672, 40.0
28.156463623046875, 32.0
28.164961576461792, 35.0
28.17399787902832, 36.0
28.182215690612793, 33.0
28.192781448364258, 35.0
28.20159125328064, 34.0
28.212246417999268, 31.0
28.22142243385315, 26.0
28.23039197921753, 33.0
28.238646984100342, 30.0
28.248847723007202, 27.0
28.256904363632202, 30.0
28.26596975326538, 31.0
28.274162530899048, 28.0
28.283275604248047, 35.0
28.293630599975586, 31.0
28.30514097213745, 30.0
28.313732147216797, 27.0
28.323427200317383, 25.0
28.331544160842896, 29.0
28.34044075012207, 24.0
28.348370790481567, 26.0
28.3586688041687, 21.0
28.367183685302734, 23.0
28.375841856002808, 21.0
28.383837461471558, 26.0
28.392451286315918, 23.0
28.400686025619507, 24.0
28.409552812576294, 20.0
28.41850781440735, 17.0
28.4298894405365, 20.0
28.43868660926819, 16.0
28.448261976242065, 22.0
28.457276821136475, 15.0
28.466726064682007, 17.0
28.475648164749146, 14.0
28.485084056854248, 15.0
28.49356436729431, 18.0
28.502968549728394, 15.0
28.510948657989502, 15.0
28.519333362579346, 12.0
28.52711534500122, 14.0
28.534749507904053, 16.0
