2.1229751110076904, 33.0
2.149635076522827, 41.0
2.181159734725952, 35.0
2.2082583904266357, 42.0
2.2338790893554688, 44.0
2.260219097137451, 42.0
2.2872509956359863, 42.0
2.313091993331909, 43.0
2.3390440940856934, 43.0
2.3650503158569336, 42.0
2.3913910388946533, 42.0
2.420023202896118, 39.0
2.446896553039551, 41.0
2.475024938583374, 39.0
2.502092123031616, 41.0
2.529588222503662, 40.0
2.555466890335083, 43.0
2.583078622817993, 40.0
2.609732151031494, 42.0
2.63621187210083, 42.0
2.6629014015197754, 42.0
2.6909711360931396, 39.0
2.7180027961730957, 41.0
2.74550199508667, 41.0
2.772268772125244, 41.0
2.798279047012329, 42.0
2.824005603790283, 43.0
2.848722457885742, 45.0
2.8742423057556152, 44.0
2.904052734375, 36.0
2.9302306175231934, 42.0
2.956810474395752, 41.0
2.9821982383728027, 44.0
3.0079123973846436, 44.0
3.032674551010132, 45.0
3.058405876159668, 43.0
3.0844249725341797, 42.0
3.1101369857788086, 43.0
3.136113166809082, 43.0
3.161426544189453, 44.0
3.1860404014587402, 45.0
3.211507558822632, 43.0
3.2347071170806885, 49.0
3.259051561355591, 46.0
3.2832541465759277, 47.0
3.307649850845337, 46.0
3.3319921493530273, 46.0
3.359328031539917, 40.0
3.383317708969116, 46.0
3.4064481258392334, 48.0
3.432434558868408, 42.0
3.4562087059020996, 47.0
3.4793665409088135, 48.0
3.502458095550537, 48.0
3.5255258083343506, 49.0
3.549522638320923, 46.0
3.574767827987671, 45.0
3.598775625228882, 48.0
3.6294915676116943, 36.0
3.655553102493286, 47.0
3.678924322128296, 49.0
3.7018351554870605, 48.0
3.7248950004577637, 50.0
3.7464983463287354, 51.0
3.7698333263397217, 49.0
3.7911300659179688, 52.0
3.813153028488159, 52.0
3.8353724479675293, 49.0
3.8580613136291504, 50.0
3.8797378540039062, 51.0
3.9053447246551514, 44.0
3.93052339553833, 50.0
3.952792167663574, 52.0
3.9775891304016113, 44.0
4.000497817993164, 49.0
4.023074388504028, 52.0
4.043847322463989, 55.0
4.0639708042144775, 57.0
4.084656476974487, 55.0
4.105511665344238, 54.0
4.1258721351623535, 58.0
4.146050691604614, 56.0
4.16633677482605, 58.0
4.187272071838379, 55.0
4.208167552947998, 55.0
4.228863716125488, 55.0
4.248805284500122, 58.0
4.2687788009643555, 57.0
4.288843631744385, 58.0
4.311611175537109, 52.0
4.332127332687378, 56.0
4.351463794708252, 59.0
4.37129807472229, 60.0
4.390103816986084, 62.0
4.40973973274231, 60.0
4.429260492324829, 60.0
4.448018789291382, 62.0
4.46684455871582, 61.0
4.485514879226685, 62.0
4.504339694976807, 61.0
4.522599458694458, 64.0
4.540888071060181, 64.0
4.5622336864471436, 53.0
4.58206033706665, 62.0
4.602145671844482, 59.0
4.621115207672119, 61.0
4.6403374671936035, 62.0
4.659433364868164, 61.0
4.67875075340271, 60.0
4.698226690292358, 59.0
4.717895269393921, 59.0
4.7371745109558105, 60.0
4.757719039916992, 55.0
4.7772581577301025, 59.0
4.796537399291992, 60.0
4.8162641525268555, 58.0
4.836850643157959, 58.0
4.857026100158691, 57.0
4.88191556930542, 46.0
4.902076482772827, 57.0
4.929473638534546, 40.0
4.9508867263793945, 55.0
4.97147798538208, 56.0
4.99286413192749, 53.0
5.014836549758911, 52.0
5.036826133728027, 51.0
5.059110641479492, 51.0
5.0815770626068115, 51.0
5.102940797805786, 54.0
5.125026702880859, 51.0
5.1468236446380615, 52.0
5.169203281402588, 51.0
5.192720890045166, 48.0
5.215140104293823, 50.0
5.237539052963257, 51.0
5.260671377182007, 48.0
5.28412389755249, 48.0
5.307489633560181, 49.0
5.330629110336304, 49.0
5.354334354400635, 47.0
5.377573728561401, 49.0
5.400863409042358, 48.0
5.4248785972595215, 47.0
5.449131011962891, 47.0
5.475629806518555, 42.0
5.498490333557129, 48.0
5.523557424545288, 44.0
5.546664714813232, 48.0
5.570899486541748, 47.0
5.594208717346191, 48.0
5.61711311340332, 49.0
5.640087366104126, 49.0
5.66296648979187, 50.0
5.684935092926025, 51.0
5.7074174880981445, 50.0
5.7307703495025635, 48.0
5.753551244735718, 49.0
5.776427507400513, 49.0
5.79812479019165, 53.0
5.820956230163574, 49.0
5.842564344406128, 52.0
5.865166902542114, 50.0
5.887387752532959, 53.0
5.908701658248901, 53.0
5.930063724517822, 53.0
5.955194473266602, 44.0
5.9758594036102295, 55.0
5.997210741043091, 54.0
6.018499374389648, 53.0
6.038734436035156, 57.0
6.059495449066162, 57.0
6.082535743713379, 49.0
6.10303807258606, 58.0
6.12282919883728, 58.0
6.142927408218384, 57.0
6.162568092346191, 59.0
6.182047367095947, 59.0
6.2014055252075195, 59.0
6.219887971878052, 63.0
6.238773584365845, 62.0
6.257523059844971, 62.0
6.276639223098755, 60.0
6.295508861541748, 63.0
6.3142712116241455, 62.0
6.332369327545166, 65.0
6.350378513336182, 64.0
6.368508338928223, 65.0
6.386904716491699, 63.0
6.404859304428101, 65.0
6.425110578536987, 56.0
6.4428181648254395, 66.0
6.460765361785889, 66.0
6.478149175643921, 68.0
6.4951746463775635, 69.0
6.514474630355835, 64.0
6.531388998031616, 70.0
6.5484819412231445, 69.0
6.565465211868286, 69.0
6.5823163986206055, 70.0
6.599232912063599, 69.0
6.616137266159058, 71.0
6.632903337478638, 70.0
6.649900913238525, 70.0
6.667645692825317, 67.0
6.685175895690918, 67.0
6.702992916107178, 65.0
6.720412492752075, 69.0
6.739120960235596, 66.0
6.757926940917969, 62.0
6.776342391967773, 63.0
6.79476523399353, 63.0
6.813863277435303, 60.0
6.832590818405151, 62.0
6.850680112838745, 65.0
6.868685722351074, 65.0
6.886857032775879, 65.0
6.90467095375061, 66.0
6.9219465255737305, 68.0
6.939128398895264, 69.0
6.961795091629028, 49.0
6.981856822967529, 60.0
6.997616529464722, 75.0
7.013583660125732, 78.0
7.027997970581055, 81.0
7.043452978134155, 81.0
7.057679176330566, 82.0
7.073081970214844, 82.0
7.087301015853882, 83.0
7.101677894592285, 89.0
7.114783525466919, 90.0
7.1296913623809814, 85.0
7.142235040664673, 95.0
7.156085252761841, 96.0
7.168435096740723, 97.0
7.181492328643799, 101.0
7.194047689437866, 95.0
7.206995248794556, 101.0
7.219736099243164, 93.0
7.232439756393433, 105.0
7.244440317153931, 100.0
7.257058620452881, 105.0
7.268564939498901, 104.0
7.280767440795898, 106.0
7.291997671127319, 109.0
7.304152011871338, 111.0
7.315348386764526, 109.0
7.328222751617432, 106.0
7.339873313903809, 103.0
7.352523326873779, 104.0
7.364187240600586, 104.0
7.376815319061279, 106.0
7.388953685760498, 98.0
7.402154207229614, 99.0
7.417426824569702, 75.0
7.430788040161133, 99.0
7.4434754848480225, 94.0
7.457524061203003, 92.0
7.47026252746582, 94.0
7.484259128570557, 92.0
7.497049808502197, 93.0
7.511043071746826, 91.0
7.524935960769653, 89.0
7.539829969406128, 85.0
7.554182291030884, 85.0
7.569516658782959, 82.0
7.58376669883728, 82.0
7.599120378494263, 82.0
7.612781286239624, 86.0
7.628004550933838, 82.0
7.641040086746216, 91.0
7.6556055545806885, 87.0
7.669039726257324, 88.0
7.6832275390625, 90.0
7.697028636932373, 85.0
7.711935997009277, 84.0
7.726712942123413, 83.0
7.742042541503906, 81.0
7.755573034286499, 87.0
7.769664764404297, 90.0
7.783087730407715, 91.0
7.797121524810791, 91.0
7.8099284172058105, 93.0
7.8239006996154785, 91.0
7.836920738220215, 91.0
7.851356029510498, 88.0
7.8635032176971436, 100.0
7.877016067504883, 96.0
7.889737129211426, 95.0
7.903204441070557, 96.0
7.915637493133545, 96.0
7.928652286529541, 96.0
7.941459655761719, 93.0
7.955361604690552, 92.0
7.970402956008911, 80.0
7.984967947006226, 85.0
7.997523784637451, 96.0
8.01108169555664, 96.0
8.023844718933105, 98.0
8.037353038787842, 95.0
8.050420761108398, 91.0
8.064149141311646, 94.0
8.076975345611572, 93.0
8.091513633728027, 87.0
8.103823184967041, 97.0
8.117107629776001, 93.0
8.129745721817017, 94.0
8.142920732498169, 99.0
8.155078411102295, 99.0
8.16839337348938, 97.0
8.180646657943726, 98.0
8.193870306015015, 96.0
8.207278966903687, 93.0
8.220106363296509, 97.0
8.233946323394775, 85.0
8.24694561958313, 100.0
8.259028911590576, 99.0
8.271926879882812, 98.0
8.283929347991943, 101.0
8.296077728271484, 105.0
8.307833671569824, 104.0
8.319873332977295, 106.0
8.331196784973145, 107.0
8.343440532684326, 104.0
8.35603380203247, 95.0
8.368587493896484, 100.0
8.380043029785156, 106.0
8.392442464828491, 102.0
8.404287099838257, 101.0
8.41837215423584, 86.0
8.430683374404907, 106.0
8.444226264953613, 90.0
8.456636905670166, 96.0
8.468488216400146, 107.0
8.480979919433594, 107.0
8.494930267333984, 89.0
8.508769273757935, 94.0
8.52189302444458, 94.0
8.534711599349976, 101.0
8.5478994846344, 94.0
8.560324907302856, 106.0
8.572284936904907, 106.0
8.584678173065186, 106.0
8.597331762313843, 98.0
8.609962463378906, 103.0
8.62281322479248, 97.0
8.63509750366211, 106.0
8.64796757698059, 96.0
8.660321712493896, 104.0
8.67239785194397, 104.0
8.684709072113037, 107.0
8.696350574493408, 111.0
8.708714962005615, 106.0
8.720457553863525, 108.0
8.732649087905884, 108.0
8.744398593902588, 110.0
8.75642704963684, 111.0
8.768733739852905, 109.0
8.78083086013794, 110.0
8.792627096176147, 108.0
8.805254459381104, 107.0
8.820777177810669, 77.0
8.832226991653442, 106.0
8.844716548919678, 100.0
8.856247901916504, 112.0
8.868863105773926, 99.0
8.880415439605713, 110.0
8.892258644104004, 108.0
8.904569149017334, 107.0
8.916395425796509, 108.0
8.928319454193115, 107.0
8.940385341644287, 105.0
8.953366994857788, 98.0
8.965532064437866, 106.0
8.978278636932373, 103.0
8.993803977966309, 88.0
9.006558895111084, 106.0
9.01976227760315, 93.0
9.031971216201782, 99.0
9.043501138687134, 112.0
9.05547571182251, 110.0
9.067809104919434, 101.0
9.079797267913818, 116.0
9.093050003051758, 94.0
9.105542421340942, 103.0
9.117377996444702, 107.0
9.129395723342896, 106.0
9.141392946243286, 105.0
9.152791023254395, 119.0
9.16357970237732, 123.0
9.17539644241333, 109.0
9.18838095664978, 96.0
9.199594974517822, 121.0
9.211393356323242, 109.0
9.222559690475464, 122.0
9.234390497207642, 107.0
9.246388912200928, 107.0
9.257401466369629, 118.0
9.26877760887146, 120.0
9.279634952545166, 123.0
9.29096531867981, 126.0
9.301941394805908, 119.0
9.313013076782227, 125.0
9.323871612548828, 120.0
9.33481216430664, 124.0
9.345864295959473, 123.0
9.356507539749146, 128.0
9.368388414382935, 106.0
9.37988567352295, 119.0
9.390951156616211, 117.0
9.402028560638428, 123.0
9.412916898727417, 120.0
9.425380945205688, 103.0
9.435806035995483, 126.0
9.446534633636475, 127.0
9.457704305648804, 115.0
9.468324661254883, 129.0
9.47887897491455, 124.0
9.489886999130249, 125.0
9.501386404037476, 112.0
9.51286768913269, 117.0
9.524380207061768, 111.0
9.535340070724487, 126.0
9.545869588851929, 126.0
9.556716203689575, 127.0
9.567662954330444, 125.0
9.578786373138428, 125.0
9.590394973754883, 110.0
9.603827476501465, 100.0
9.614895582199097, 121.0
9.626212358474731, 122.0
9.636934280395508, 122.0
9.649027824401855, 115.0
9.661263942718506, 104.0
9.672775983810425, 118.0
9.684110164642334, 114.0
9.696132183074951, 111.0
9.708261966705322, 107.0
9.720137596130371, 107.0
9.732194662094116, 107.0
9.744625806808472, 103.0
9.757737159729004, 95.0
9.77047348022461, 99.0
9.783915996551514, 92.0
9.798186779022217, 87.0
9.811317920684814, 95.0
9.825892210006714, 92.0
9.839720487594604, 90.0
9.854064464569092, 85.0
9.874900341033936, 55.0
9.896071434020996, 53.0
9.913909196853638, 67.0
9.93021035194397, 73.0
9.94643759727478, 74.0
9.964982509613037, 63.0
9.982703685760498, 67.0
10.010060787200928, 40.0
10.028716802597046, 64.0
10.046897172927856, 69.0
10.06485390663147, 66.0
10.083538055419922, 62.0
10.101762771606445, 64.0
10.119648933410645, 65.0
10.13718557357788, 67.0
10.154080867767334, 70.0
10.170372009277344, 74.0
10.186753749847412, 72.0
10.204010725021362, 71.0
10.221846342086792, 69.0
10.238883972167969, 70.0
10.255504846572876, 72.0
10.272539854049683, 70.0
10.290109872817993, 67.0
10.308121681213379, 66.0
10.32588243484497, 66.0
10.344601154327393, 62.0
10.363412380218506, 61.0
10.38382863998413, 58.0
10.40427041053772, 56.0
10.4253671169281, 54.0
10.447058200836182, 56.0
10.467645645141602, 56.0
10.488271236419678, 55.0
10.508647441864014, 56.0
10.52911925315857, 56.0
10.549711227416992, 56.0
10.569526672363281, 58.0
10.589685916900635, 57.0
10.610031127929688, 56.0
10.62920093536377, 60.0
10.649567365646362, 56.0
10.669597148895264, 59.0
10.690921306610107, 56.0
10.710326433181763, 60.0
10.729847192764282, 59.0
10.748778581619263, 62.0
10.767549514770508, 62.0
10.786395788192749, 62.0
10.805941820144653, 59.0
10.82444167137146, 63.0
10.843451738357544, 61.0
10.862076044082642, 63.0
10.88067889213562, 62.0
10.900078296661377, 62.0
10.91987133026123, 59.0
10.940346717834473, 57.0
10.960586786270142, 57.0
10.980055332183838, 60.0
11.000669717788696, 56.0
11.02790093421936, 41.0
11.048724174499512, 55.0
11.069114685058594, 56.0
11.090083122253418, 55.0
11.110522985458374, 56.0
11.130727291107178, 56.0
11.150377750396729, 59.0
11.17051362991333, 57.0
11.190790891647339, 57.0
11.209025144577026, 61.0
11.226523637771606, 67.0
11.244036436080933, 67.0
11.260057926177979, 75.0
11.277003526687622, 70.0
11.293399333953857, 75.0
11.308066606521606, 83.0
11.322455406188965, 85.0
11.336987733840942, 83.0
11.350613594055176, 91.0
11.364552021026611, 89.0
11.377907752990723, 93.0
11.39047360420227, 101.0
11.404398202896118, 88.0
11.419652700424194, 79.0
11.432185888290405, 105.0
11.444867372512817, 99.0
11.45756721496582, 99.0
11.469413042068481, 107.0
11.481417417526245, 107.0
11.49352240562439, 104.0
11.505919218063354, 107.0
11.518549919128418, 108.0
11.530416488647461, 108.0
11.54261565208435, 106.0
11.554633855819702, 108.0
11.566684484481812, 105.0
11.579036474227905, 102.0
11.592027425765991, 95.0
11.605138540267944, 95.0
11.61791706085205, 97.0
11.631213426589966, 93.0
11.644301652908325, 94.0
11.656452417373657, 104.0
11.669571161270142, 105.0
11.681883096694946, 103.0
11.694367408752441, 101.0
11.707117557525635, 103.0
11.720035791397095, 97.0
11.732515096664429, 101.0
11.746095180511475, 90.0
11.759147644042969, 96.0
11.773797750473022, 83.0
11.78767466545105, 89.0
11.801836490631104, 86.0
11.81528353691101, 92.0
11.8308744430542, 82.0
11.84499979019165, 91.0
11.858792543411255, 91.0
11.872605562210083, 90.0
11.887147188186646, 84.0
11.90206003189087, 82.0
11.916425466537476, 84.0
11.931176662445068, 82.0
11.946432828903198, 79.0
11.961697578430176, 79.0
11.977398157119751, 77.0
11.997477531433105, 58.0
12.014729022979736, 73.0
12.035168170928955, 56.0
12.053261995315552, 70.0
12.069360256195068, 74.0
12.085625171661377, 73.0
12.104111671447754, 63.0
12.121073484420776, 72.0
12.13763427734375, 71.0
12.153846502304077, 74.0
12.170272588729858, 73.0
12.186678171157837, 72.0
12.203504800796509, 71.0
12.220612049102783, 73.0
12.236756563186646, 74.0
12.25370740890503, 73.0
12.269931077957153, 74.0
12.28571081161499, 76.0
12.302472829818726, 73.0
12.318126201629639, 78.0
12.333385467529297, 82.0
12.34856104850769, 83.0
12.36411452293396, 80.0
12.37903881072998, 84.0
12.394508600234985, 81.0
12.410537004470825, 82.0
12.429762125015259, 63.0
12.447494268417358, 69.0
12.46357536315918, 77.0
12.480339050292969, 73.0
12.496847152709961, 75.0
12.51260757446289, 79.0
12.528819561004639, 77.0
12.54478645324707, 77.0
12.56091594696045, 77.0
12.577089309692383, 76.0
12.593263864517212, 76.0
12.61143684387207, 70.0
12.627818822860718, 75.0
12.644373416900635, 75.0
12.66080117225647, 75.0
12.677232027053833, 75.0
12.695149660110474, 67.0
12.712357997894287, 70.0
12.728764772415161, 75.0
12.744481801986694, 79.0
12.760401010513306, 78.0
12.776011943817139, 80.0
12.79076361656189, 86.0
12.807233333587646, 82.0
12.82320237159729, 79.0
12.838695287704468, 83.0
12.854398012161255, 79.0
12.869618654251099, 83.0
12.884767055511475, 83.0
12.900081396102905, 81.0
12.915063619613647, 83.0
12.930700778961182, 79.0
12.946412086486816, 79.0
12.96227765083313, 79.0
12.97841191291809, 77.0
12.996320724487305, 67.0
13.01144528388977, 80.0
13.026241779327393, 82.0
13.042933940887451, 73.0
13.063405275344849, 67.0
13.078915357589722, 80.0
13.094187259674072, 79.0
13.10960841178894, 81.0
13.124443531036377, 82.0
13.140199184417725, 78.0
13.155215978622437, 83.0
13.17035460472107, 83.0
13.185455322265625, 81.0
13.200495481491089, 84.0
13.215851545333862, 78.0
13.230879783630371, 82.0
13.24610161781311, 79.0
13.260880708694458, 85.0
13.27521014213562, 85.0
13.291122198104858, 78.0
13.30563497543335, 84.0
13.319966077804565, 92.0
13.333243131637573, 94.0
13.347032070159912, 94.0
13.361915826797485, 86.0
13.37631869316101, 89.0
13.390398979187012, 87.0
13.404813289642334, 89.0
13.420405626296997, 77.0
13.436720371246338, 77.0
13.45223093032837, 77.0
13.468268394470215, 80.0
13.484774351119995, 72.0
13.502377033233643, 69.0
13.519846439361572, 67.0
13.537416219711304, 70.0
13.556855916976929, 69.0
13.577590703964233, 59.0
13.594207525253296, 74.0
13.611549139022827, 71.0
13.627758741378784, 73.0
13.644011497497559, 76.0
13.660012245178223, 74.0
13.676405191421509, 75.0
13.692744016647339, 73.0
13.708710193634033, 77.0
13.724731922149658, 74.0
13.74182653427124, 71.0
13.7595055103302, 70.0
13.775870084762573, 75.0
13.791952133178711, 74.0
13.807610988616943, 80.0
13.823417663574219, 76.0
13.838682174682617, 82.0
13.854538917541504, 75.0
13.870303392410278, 79.0
13.885301351547241, 80.0
13.900718450546265, 81.0
13.916056156158447, 81.0
13.930926084518433, 84.0
13.946704864501953, 78.0
13.962530136108398, 78.0
13.977385759353638, 81.0
13.99242877960205, 83.0
14.007118463516235, 83.0
14.021655321121216, 86.0
14.036105394363403, 88.0
14.050829648971558, 85.0
14.071781873703003, 54.0
14.08589506149292, 89.0
14.099886178970337, 91.0
14.114965200424194, 83.0
14.129667043685913, 84.0
14.143335819244385, 90.0
14.157452583312988, 87.0
14.172244310379028, 86.0
14.186905145645142, 82.0
14.204140186309814, 70.0
14.21888279914856, 82.0
14.23438835144043, 80.0
14.248783349990845, 85.0
14.264127731323242, 81.0
14.279070854187012, 82.0
14.294370651245117, 83.0
14.31028413772583, 76.0
14.326388359069824, 77.0
14.341724157333374, 78.0
14.357179403305054, 81.0
14.37313175201416, 75.0
14.3892822265625, 79.0
14.404693603515625, 78.0
14.422462224960327, 68.0
14.438055515289307, 77.0
14.454766511917114, 77.0
14.470703363418579, 75.0
14.486416816711426, 79.0
14.502515316009521, 75.0
14.519067287445068, 74.0
14.534801006317139, 77.0
14.550856828689575, 77.0
14.566781997680664, 75.0
14.583544492721558, 73.0
14.599650144577026, 74.0
14.617129802703857, 72.0
14.63409161567688, 70.0
14.650974035263062, 72.0
14.669325590133667, 68.0
14.686801433563232, 70.0
14.70509123802185, 64.0
14.724566221237183, 61.0
14.747360467910767, 49.0
14.767116069793701, 60.0
14.786471843719482, 60.0
14.806111097335815, 60.0
14.826093673706055, 57.0
14.846880674362183, 56.0
14.866819381713867, 57.0
14.887104749679565, 58.0
14.907867431640625, 56.0
14.928404331207275, 57.0
14.948450565338135, 58.0
14.96884822845459, 58.0
14.988927364349365, 57.0
15.009464740753174, 57.0
15.02986741065979, 58.0
15.049655675888062, 60.0
15.069007396697998, 59.0
15.093328475952148, 47.0
15.114514350891113, 53.0
15.134162187576294, 61.0
15.152844429016113, 62.0
15.172770977020264, 60.0
15.1919686794281, 61.0
15.211502313613892, 61.0
15.2302565574646, 62.0
15.249961853027344, 60.0
15.268962860107422, 61.0
15.287921667098999, 65.0
15.306022882461548, 67.0
15.324508666992188, 65.0
15.341784477233887, 68.0
15.35946536064148, 69.0
15.377458333969116, 70.0
15.394631385803223, 71.0
15.41126275062561, 73.0
15.429563045501709, 66.0
15.445481538772583, 75.0
15.461198568344116, 79.0
15.47632884979248, 79.0
15.49233627319336, 78.0
15.507546186447144, 79.0
15.52407169342041, 74.0
15.539470672607422, 79.0
15.55530333518982, 80.0
15.570789098739624, 77.0
15.586432933807373, 79.0
15.603442430496216, 76.0
15.61892580986023, 78.0
15.634303092956543, 79.0
15.64946436882019, 82.0
15.663855791091919, 87.0
15.679816961288452, 75.0
15.695005416870117, 83.0
15.709835767745972, 85.0
15.723448991775513, 90.0
15.73730731010437, 88.0
15.750698566436768, 96.0
15.763924360275269, 97.0
15.777822732925415, 90.0
15.790199279785156, 101.0
15.802733182907104, 104.0
15.81495189666748, 103.0
15.827427387237549, 106.0
15.839723587036133, 108.0
15.851761817932129, 109.0
15.863468170166016, 109.0
15.875166177749634, 111.0
15.886571645736694, 113.0
15.8982093334198, 115.0
15.909046649932861, 120.0
15.921392440795898, 106.0
15.93964171409607, 65.0
15.958194732666016, 61.0
15.971771001815796, 106.0
15.98183298110962, 123.0
15.99147915840149, 131.0
16.001282930374146, 128.0
16.015400409698486, 96.0
16.025060415267944, 131.0
16.034476280212402, 135.0
16.043959379196167, 133.0
16.05330228805542, 136.0
16.063164710998535, 129.0
16.072582960128784, 137.0
16.08232855796814, 129.0
16.093480587005615, 109.0
16.105897903442383, 100.0
16.11564803123474, 130.0
16.125205039978027, 132.0
16.134578704833984, 135.0
16.144204139709473, 132.0
16.153526782989502, 138.0
16.16279625892639, 136.0
16.17251968383789, 129.0
16.182742834091187, 130.0
16.192259788513184, 132.0
16.2016761302948, 133.0
16.21244978904724, 113.0
16.22199511528015, 131.0
16.231518745422363, 133.0
16.24101996421814, 133.0
16.25066828727722, 130.0
16.26026725769043, 131.0
16.270071029663086, 130.0
16.28011441230774, 124.0
16.28980827331543, 132.0
16.29973268508911, 127.0
16.309651613235474, 126.0
16.319260835647583, 131.0
16.32914900779724, 128.0
16.338410139083862, 139.0
16.347652912139893, 141.0
16.356662034988403, 143.0
16.365979194641113, 139.0
16.37551999092102, 134.0
16.38493323326111, 138.0
16.395357847213745, 130.0
16.405189752578735, 130.0
16.41712260246277, 106.0
16.427409887313843, 122.0
16.4382266998291, 114.0
16.450177431106567, 101.0
16.462748765945435, 96.0
16.475719451904297, 93.0
16.48936891555786, 87.0
16.502967357635498, 87.0
16.516663551330566, 86.0
16.530426740646362, 85.0
16.544483423233032, 83.0
16.558281898498535, 85.0
16.573201894760132, 81.0
16.588410139083862, 76.0
16.60537838935852, 68.0
16.619996070861816, 80.0
16.635313272476196, 84.0
16.649093627929688, 85.0
16.663522720336914, 84.0
16.677682638168335, 82.0
16.692909479141235, 83.0
16.70660161972046, 86.0
16.721728324890137, 82.0
16.736624240875244, 78.0
16.752313137054443, 77.0
16.766636848449707, 82.0
16.78106141090393, 85.0
16.794734716415405, 86.0
16.80913233757019, 87.0
16.82305932044983, 85.0
16.837077617645264, 87.0
16.85049295425415, 88.0
16.86609148979187, 77.0
16.87994956970215, 85.0
16.894409894943237, 87.0
16.909199714660645, 81.0
16.92460322380066, 80.0
16.93916940689087, 80.0
16.954489946365356, 78.0
16.968873023986816, 81.0
16.984532117843628, 77.0
16.999210119247437, 80.0
17.01431655883789, 80.0
17.028968811035156, 79.0
17.044514179229736, 77.0
17.0591561794281, 80.0
17.07455611228943, 80.0
17.088412046432495, 85.0
17.103177785873413, 84.0
17.120224714279175, 66.0
17.13542413711548, 89.0
17.148632526397705, 93.0
17.16193437576294, 93.0
17.174829483032227, 93.0
17.188708782196045, 89.0
17.20125150680542, 96.0
17.214951038360596, 90.0
17.227697610855103, 95.0
17.241708755493164, 88.0
17.25803828239441, 70.0
17.273217916488647, 81.0
17.287186861038208, 84.0
17.30056381225586, 93.0
17.313148021697998, 95.0
17.32664704322815, 92.0
17.340110301971436, 88.0
17.354040145874023, 88.0
17.367910623550415, 89.0
17.381843328475952, 88.0
17.395160913467407, 89.0
17.409441232681274, 86.0
17.42488121986389, 76.0
17.439807653427124, 83.0
17.455246448516846, 76.0
17.470137357711792, 81.0
17.48418354988098, 83.0
17.49920082092285, 81.0
17.51446270942688, 80.0
17.529504537582397, 82.0
17.544206380844116, 79.0
17.559679746627808, 85.0
17.574445962905884, 80.0
17.5896213054657, 79.0
17.604260206222534, 79.0
17.620882987976074, 73.0
17.635691165924072, 78.0
17.650712490081787, 81.0
17.665354013442993, 80.0
17.68062472343445, 79.0
17.69604468345642, 75.0
17.711187839508057, 79.0
17.726496934890747, 79.0
17.741191625595093, 83.0
17.755258798599243, 83.0
17.770827770233154, 79.0
17.78631281852722, 75.0
17.800899982452393, 85.0
17.814391613006592, 87.0
17.828606843948364, 89.0
17.841328620910645, 94.0
17.855244159698486, 89.0
17.86870312690735, 87.0
17.881882667541504, 94.0
17.893925189971924, 101.0
17.9064519405365, 102.0
17.918492794036865, 100.0
17.931158542633057, 99.0
17.94390845298767, 93.0
17.958715677261353, 88.0
17.97141146659851, 95.0
17.988788843154907, 67.0
18.001874685287476, 90.0
18.01573371887207, 89.0
18.035356760025024, 57.0
18.04978346824646, 91.0
18.062949419021606, 90.0
18.07700777053833, 87.0
18.09047794342041, 88.0
18.10486936569214, 85.0
18.11989998817444, 77.0
18.139972448349, 58.0
18.15402626991272, 87.0
18.1674644947052, 92.0
18.179770469665527, 98.0
18.19287610054016, 98.0
18.2053325176239, 96.0
18.21902632713318, 96.0
18.23285961151123, 86.0
18.24604558944702, 97.0
18.25836205482483, 98.0
18.27153754234314, 98.0
18.28376054763794, 98.0
18.297532320022583, 93.0
18.31044340133667, 93.0
18.32353973388672, 98.0
18.335806131362915, 99.0
18.348769903182983, 99.0
18.36117649078369, 97.0
18.375349283218384, 89.0
18.388086557388306, 94.0
18.401312828063965, 97.0
18.413559675216675, 99.0
18.428874492645264, 89.0
18.442172050476074, 97.0
18.454951286315918, 93.0
18.468602657318115, 93.0
18.48125720024109, 94.0
18.495477199554443, 90.0
18.50800395011902, 95.0
18.521424531936646, 95.0
18.534430265426636, 91.0
18.54824733734131, 92.0
18.561302423477173, 90.0
18.575772762298584, 84.0
18.599192142486572, 46.0
18.61497139930725, 73.0
18.629158973693848, 84.0
18.644031286239624, 84.0
18.657100677490234, 90.0
18.671284198760986, 89.0
18.684284687042236, 91.0
18.698044300079346, 93.0
18.710978031158447, 92.0
18.725730657577515, 87.0
18.7386577129364, 92.0
18.751875638961792, 95.0
18.764697074890137, 93.0
18.778452396392822, 92.0
18.791836977005005, 90.0
18.805323839187622, 94.0
18.81769561767578, 97.0
18.830687999725342, 99.0
18.842838764190674, 98.0
18.855988264083862, 98.0
18.868216037750244, 97.0
18.881042957305908, 102.0
18.89293384552002, 102.0
18.90542197227478, 104.0
18.916953563690186, 105.0
18.929622173309326, 104.0
18.941802501678467, 100.0
18.954339742660522, 103.0
18.965882778167725, 105.0
18.978075742721558, 107.0
18.989670276641846, 105.0
19.001538515090942, 109.0
19.016155242919922, 78.0
19.02774691581726, 104.0
19.0400812625885, 106.0
19.05121397972107, 110.0
19.06327986717224, 109.0
19.074928283691406, 109.0
19.087958097457886, 98.0
19.099195957183838, 108.0
19.11146831512451, 108.0
19.122754335403442, 108.0
19.134843111038208, 108.0
19.150201320648193, 75.0
19.163994073867798, 98.0
19.175761938095093, 103.0
19.18909525871277, 93.0
19.20050883293152, 107.0
19.212608337402344, 110.0
19.22468400001526, 100.0
19.236069202423096, 116.0
19.24687147140503, 113.0
19.25890612602234, 115.0
19.26895260810852, 125.0
19.280004262924194, 123.0
19.290281772613525, 123.0
19.301568269729614, 120.0
19.313071489334106, 112.0
19.325100898742676, 111.0
19.33651876449585, 106.0
19.349931001663208, 96.0
19.362244367599487, 98.0
19.37567448616028, 94.0
19.388261079788208, 95.0
19.402785062789917, 84.0
19.417925596237183, 76.0
19.4314227104187, 92.0
19.445199489593506, 86.0
19.460340976715088, 84.0
19.47483468055725, 81.0
19.490687131881714, 75.0
19.507182836532593, 71.0
19.524415254592896, 68.0
19.541558742523193, 66.0
19.56282925605774, 63.0
19.58087658882141, 62.0
19.599161624908447, 63.0
19.618119716644287, 59.0
19.636616468429565, 63.0
19.65532684326172, 60.0
19.67393922805786, 62.0
19.69185471534729, 63.0
19.71014642715454, 63.0
19.728327989578247, 62.0
19.746980905532837, 62.0
19.76634430885315, 60.0
19.785507440567017, 61.0
19.804198026657104, 60.0
19.822705268859863, 62.0
19.839558362960815, 68.0
19.856377601623535, 70.0
19.87198233604431, 74.0
19.887423276901245, 78.0
19.90182614326477, 81.0
19.916645526885986, 82.0
19.93176507949829, 80.0
19.94572687149048, 88.0
19.9586923122406, 92.0
19.97306251525879, 92.0
19.984286785125732, 109.0
19.996033906936646, 109.0
20.006953716278076, 111.0
20.01831817626953, 119.0
20.02855920791626, 121.0
20.039398193359375, 127.0
20.049351930618286, 128.0
20.059855461120605, 130.0
20.07124972343445, 106.0
20.082741022109985, 121.0
20.09235954284668, 132.0
20.10438323020935, 107.0
20.114096879959106, 129.0
20.124688148498535, 130.0
20.134207725524902, 133.0
20.144710540771484, 131.0
20.155110836029053, 121.0
20.16983151435852, 93.0
20.181273221969604, 107.0
20.193053722381592, 115.0
20.20426321029663, 109.0
20.219599962234497, 78.0
20.230679035186768, 111.0
20.24395251274109, 95.0
20.255856037139893, 101.0
20.268572330474854, 99.0
20.28118658065796, 95.0
20.293934106826782, 98.0
20.306146144866943, 99.0
20.31887912750244, 99.0
20.33169937133789, 92.0
20.345508337020874, 89.0
20.357670545578003, 99.0
20.370704889297485, 97.0
20.38359045982361, 92.0
20.396892070770264, 95.0
20.408398866653442, 106.0
20.422481775283813, 86.0
20.433613538742065, 111.0
20.44525122642517, 116.0
20.45520853996277, 126.0
20.465707540512085, 132.0
20.475379943847656, 132.0
20.485738277435303, 136.0
20.49496841430664, 138.0
20.506269454956055, 119.0
20.515922784805298, 148.0
20.527378797531128, 116.0
20.53664469718933, 139.0
20.548380136489868, 109.0
20.558199882507324, 130.0
20.568913221359253, 130.0
20.578868865966797, 128.0
20.589247465133667, 135.0
20.598931312561035, 131.0
20.60984230041504, 122.0
20.61998963356018, 121.0
20.630050659179688, 140.0
20.639156579971313, 141.0
20.65113377571106, 113.0
20.659878730773926, 151.0
20.67249083518982, 103.0
20.682714700698853, 122.0
20.69747257232666, 88.0
20.70741367340088, 160.0
20.716472387313843, 164.0
20.725167512893677, 154.0
20.73606300354004, 125.0
20.744552850723267, 158.0
20.754287481307983, 148.0
20.763460159301758, 141.0
20.776394367218018, 98.0
20.78631091117859, 127.0
20.798521518707275, 104.0
20.81076717376709, 99.0
20.82548189163208, 82.0
20.839066982269287, 87.0
20.854280471801758, 85.0
20.86933469772339, 78.0
20.88535475730896, 75.0
20.901604175567627, 70.0
20.91985535621643, 63.0
20.939319610595703, 57.0
20.958553552627563, 65.0
20.97665047645569, 62.0
20.994855403900146, 64.0
21.012623071670532, 64.0
21.030966997146606, 64.0
21.04832148551941, 66.0
21.066246032714844, 69.0
21.083521604537964, 66.0
21.10068154335022, 68.0
21.121490716934204, 53.0
21.138929843902588, 67.0
21.157087326049805, 62.0
21.178789377212524, 53.0
21.199110507965088, 55.0
21.217997312545776, 62.0
21.235732555389404, 64.0
21.2541925907135, 64.0
21.272621154785156, 61.0
21.29196572303772, 60.0
21.309555530548096, 65.0
21.328428745269775, 64.0
21.345513343811035, 67.0
21.36310386657715, 66.0
21.3802011013031, 66.0
21.398642778396606, 64.0
21.417576551437378, 59.0
21.434298992156982, 69.0
21.450804710388184, 70.0
21.467477083206177, 71.0
21.483423709869385, 72.0
21.499370098114014, 75.0
21.516075134277344, 69.0
21.532277584075928, 73.0
21.54721760749817, 78.0
21.56324338912964, 79.0
21.577847242355347, 80.0
21.59324884414673, 79.0
21.608110904693604, 78.0
21.623829126358032, 76.0
21.641964197158813, 63.0
21.657499313354492, 80.0
21.67151713371277, 84.0
21.686221837997437, 82.0
21.700066566467285, 85.0
21.715112447738647, 80.0
21.730026960372925, 83.0
21.74433469772339, 85.0
21.759029150009155, 83.0
21.773717641830444, 83.0
21.787920236587524, 86.0
21.801467418670654, 88.0
21.815829277038574, 85.0
21.829455137252808, 86.0
21.843596696853638, 86.0
21.857787132263184, 83.0
21.872653484344482, 82.0
21.886486053466797, 85.0
21.90058422088623, 88.0
21.914358377456665, 86.0
21.92900824546814, 83.0
21.943777322769165, 84.0
21.958539247512817, 83.0
21.97282099723816, 82.0
21.986988067626953, 87.0
22.002102375030518, 77.0
22.01715898513794, 81.0
22.033817052841187, 76.0
22.047932147979736, 87.0
22.061947107315063, 84.0
22.076863288879395, 82.0
22.090654850006104, 86.0
22.10491633415222, 86.0
22.119272232055664, 81.0
22.133991718292236, 84.0
22.148359537124634, 81.0
22.16355276107788, 80.0
22.17806053161621, 80.0
22.198566913604736, 56.0
22.215171813964844, 69.0
22.230734825134277, 78.0
22.24625825881958, 74.0
22.2626850605011, 73.0
22.2787127494812, 72.0
22.296215295791626, 68.0
22.312891483306885, 69.0
22.33087396621704, 65.0
22.348358154296875, 65.0
22.36642837524414, 65.0
22.384204626083374, 63.0
22.40173029899597, 67.0
22.4210946559906, 60.0
22.43890905380249, 68.0
22.455970287322998, 67.0
22.47462511062622, 63.0
22.491876363754272, 66.0
22.509654998779297, 66.0
22.526784896850586, 67.0
22.545272827148438, 69.0
22.56253695487976, 66.0
22.580417156219482, 66.0
22.597982168197632, 65.0
22.618088483810425, 60.0
22.63403844833374, 74.0
22.65036368370056, 74.0
22.667317867279053, 67.0
22.685010194778442, 66.0
22.70197319984436, 67.0
22.719931602478027, 65.0
22.739487409591675, 59.0
22.760401725769043, 55.0
22.78175926208496, 52.0
22.803979635238647, 51.0
22.82424759864807, 55.0
22.84493923187256, 55.0
22.862940788269043, 63.0
22.880913257598877, 65.0
22.8982515335083, 65.0
22.914334058761597, 74.0
22.931864023208618, 66.0
22.94730496406555, 78.0
22.961111307144165, 86.0
22.975634813308716, 84.0
22.98791265487671, 98.0
23.001706838607788, 89.0
23.013001203536987, 109.0
23.026076555252075, 95.0
23.037842512130737, 104.0
23.050631523132324, 99.0
23.06161904335022, 112.0
23.07311177253723, 115.0
23.08389902114868, 114.0
23.095955848693848, 113.0
23.107284545898438, 114.0
23.119399070739746, 106.0
23.12958288192749, 124.0
23.140909671783447, 115.0
23.151028394699097, 124.0
23.162792682647705, 115.0
23.172545909881592, 129.0
23.1827290058136, 141.0
23.191890001296997, 142.0
23.202577114105225, 134.0
23.213064432144165, 118.0
23.225303173065186, 118.0
23.234772443771362, 137.0
23.245644330978394, 134.0
23.254987478256226, 137.0
23.26577115058899, 138.0
23.275115251541138, 138.0
23.285603284835815, 134.0
23.294864892959595, 137.0
23.306238889694214, 115.0
23.3163480758667, 139.0
23.326597213745117, 131.0
23.335742235183716, 139.0
23.345905542373657, 140.0
23.355862855911255, 129.0
23.366753101348877, 125.0
23.376309871673584, 133.0
23.38692545890808, 130.0
23.396662950515747, 131.0
23.40839123725891, 110.0
23.419782638549805, 106.0
23.430816411972046, 123.0
23.441315412521362, 118.0
23.453267574310303, 118.0
23.46354341506958, 129.0
23.47413945198059, 132.0
23.485060214996338, 122.0
23.495687246322632, 129.0
23.506763219833374, 113.0
23.51803183555603, 128.0
23.528069496154785, 126.0
23.53832244873047, 138.0
23.548018217086792, 135.0
23.558693170547485, 125.0
23.56813907623291, 138.0
23.578585863113403, 134.0
23.587783575057983, 143.0
23.59749412536621, 148.0
23.606685400009155, 142.0
23.616345643997192, 151.0
23.625638008117676, 139.0
23.635096311569214, 154.0
23.643717527389526, 152.0
23.65451216697693, 135.0
23.66420292854309, 154.0
23.6730375289917, 147.0
23.682458877563477, 155.0
23.691155433654785, 153.0
23.701500415802002, 135.0
23.71021604537964, 148.0
23.72050976753235, 136.0
23.729267835617065, 148.0
23.73897957801819, 151.0
23.747730255126953, 150.0
23.75738549232483, 149.0
23.766403198242188, 143.0
23.776569604873657, 135.0
23.785680294036865, 140.0
23.795554876327515, 144.0
23.804680347442627, 144.0
23.814652681350708, 143.0
23.824859857559204, 126.0
23.83666157722473, 120.0
23.846166372299194, 133.0
23.856821060180664, 139.0
23.867223024368286, 122.0
23.878793954849243, 120.0
23.888689756393433, 129.0
23.8997745513916, 120.0
23.909823656082153, 124.0
23.920867443084717, 126.0
23.931981563568115, 111.0
23.943037748336792, 119.0
23.954278230667114, 109.0
23.96608829498291, 111.0
23.97806692123413, 100.0
23.99054718017578, 102.0
24.003007888793945, 98.0
24.016016483306885, 96.0
24.02894401550293, 93.0
24.04327368736267, 90.0
24.05681037902832, 88.0
24.072107791900635, 79.0
24.086543321609497, 82.0
24.10149049758911, 81.0
24.117167711257935, 74.0
24.13644242286682, 64.0
24.153064012527466, 69.0
24.172850847244263, 58.0
24.18921446800232, 70.0
24.206016302108765, 71.0
24.223173141479492, 67.0
24.24488639831543, 53.0
24.262243270874023, 65.0
24.28154158592224, 60.0
24.300511837005615, 59.0
24.320841312408447, 60.0
24.340362548828125, 57.0
24.3610520362854, 56.0
24.381957292556763, 53.0
24.402270555496216, 56.0
24.42412757873535, 50.0
24.444873809814453, 57.0
24.464619636535645, 57.0
24.484269380569458, 60.0
24.50350069999695, 58.0
24.52336287498474, 58.0
24.5414936542511, 62.0
24.55936360359192, 65.0
24.578272581100464, 60.0
24.596802949905396, 64.0
24.6150164604187, 62.0
24.633925676345825, 62.0
24.652491569519043, 61.0
24.67114806175232, 63.0
24.689263582229614, 64.0
24.706790924072266, 67.0
24.72486639022827, 63.0
24.743297576904297, 65.0
24.760090351104736, 68.0
24.777823448181152, 67.0
24.794353723526, 69.0
24.812894344329834, 63.0
24.82950234413147, 70.0
24.84609818458557, 72.0
24.86303687095642, 72.0
24.879775762557983, 68.0
24.89543080329895, 77.0
24.910980701446533, 74.0
24.92692232131958, 76.0
24.941981077194214, 77.0
24.956920385360718, 81.0
24.9704692363739, 88.0
24.985602140426636, 80.0
24.999659061431885, 90.0
25.013509511947632, 90.0
25.027047634124756, 87.0
25.03932762145996, 104.0
25.05147433280945, 99.0
25.063472032546997, 107.0
25.07604193687439, 94.0
25.088273286819458, 104.0
25.099567413330078, 108.0
25.11264157295227, 98.0
25.123934745788574, 108.0
25.136214017868042, 109.0
25.14906358718872, 110.0
25.161235094070435, 108.0
25.172452211380005, 110.0
25.184404850006104, 112.0
25.195375680923462, 112.0
25.207149028778076, 111.0
25.21839213371277, 108.0
25.229984760284424, 116.0
25.24762749671936, 64.0
25.261143922805786, 95.0
25.273027896881104, 103.0
25.285747051239014, 109.0
25.300426959991455, 91.0
25.31259822845459, 109.0
25.323375463485718, 114.0
25.33666157722473, 96.0
25.347748517990112, 111.0
25.359124183654785, 115.0
25.370662212371826, 105.0
25.382866859436035, 111.0
25.393896102905273, 112.0
25.405799388885498, 113.0
25.419206380844116, 88.0
25.430893659591675, 106.0
25.44443988800049, 99.0
25.455751180648804, 109.0
25.467073440551758, 115.0
25.478228092193604, 112.0
25.490113496780396, 108.0
25.50083827972412, 114.0
25.512121438980103, 120.0
25.522444009780884, 121.0
25.53366208076477, 122.0
25.54399585723877, 121.0
25.55476713180542, 129.0
25.565330028533936, 119.0
25.57681894302368, 118.0
25.586971044540405, 124.0
25.597769498825073, 123.0
25.6076443195343, 127.0
25.61827802658081, 132.0
25.628945112228394, 118.0
25.641398191452026, 108.0
25.65138053894043, 129.0
25.66240406036377, 126.0
25.67302441596985, 117.0
25.68416166305542, 123.0
25.694899559020996, 117.0
25.70740532875061, 104.0
25.71820068359375, 115.0
25.730730295181274, 101.0
25.741403102874756, 117.0
25.752852201461792, 119.0
25.763370275497437, 118.0
25.77503252029419, 114.0
25.785637140274048, 116.0
25.796600580215454, 125.0
25.806955099105835, 121.0
25.817623376846313, 130.0
25.827946662902832, 123.0
25.84039807319641, 104.0
25.850489616394043, 128.0
25.861993074417114, 125.0
25.871696710586548, 131.0
25.88228487968445, 131.0
25.89348530769348, 115.0
25.90564465522766, 112.0
25.91568922996521, 129.0
25.92783546447754, 108.0
25.937786102294922, 128.0
25.948012113571167, 139.0
25.957517623901367, 137.0
25.96866512298584, 121.0
25.97855544090271, 127.0
25.99039340019226, 109.0
26.00008249282837, 133.0
26.010797262191772, 127.0
26.02101755142212, 122.0
26.033411741256714, 104.0
26.043838500976562, 120.0
26.0564124584198, 102.0
26.067256450653076, 116.0
26.078996896743774, 115.0
26.090211629867554, 109.0
26.10253119468689, 106.0
26.114141702651978, 104.0
26.126263856887817, 107.0
26.1379234790802, 103.0
26.150449514389038, 102.0
26.161246061325073, 117.0
26.172729969024658, 120.0
26.18283438682556, 125.0
26.193509340286255, 132.0
26.203307390213013, 132.0
26.213659524917603, 130.0
26.22338318824768, 129.0
26.23471999168396, 122.0
26.24486231803894, 125.0
26.258752584457397, 90.0
26.274006128311157, 92.0
26.28622007369995, 105.0
26.297189712524414, 114.0
26.309472799301147, 104.0
26.320058584213257, 119.0
26.332399368286133, 103.0
26.343457460403442, 112.0
26.35672640800476, 95.0
26.368481636047363, 104.0
26.381941556930542, 94.0
26.39443826675415, 98.0
26.407057762145996, 110.0
26.42027473449707, 90.0
26.432747840881348, 107.0
26.44364833831787, 113.0
26.455286026000977, 116.0
26.465981245040894, 116.0
26.476853132247925, 122.0
26.486947298049927, 123.0
26.497708320617676, 130.0
26.50793981552124, 125.0
26.519370794296265, 117.0
26.53037142753601, 111.0
26.54241919517517, 106.0
26.553200483322144, 117.0
26.564415454864502, 124.0
26.574368476867676, 128.0
26.58616614341736, 109.0
26.59544348716736, 142.0
26.605684757232666, 144.0
26.615116834640503, 138.0
26.626098155975342, 128.0
26.63578176498413, 131.0
26.64670181274414, 124.0
26.65651559829712, 128.0
26.66939401626587, 97.0
26.679481267929077, 126.0
26.691238164901733, 115.0
26.701761960983276, 121.0
26.713399648666382, 111.0
26.72407841682434, 118.0
26.736397743225098, 104.0
26.746439695358276, 128.0
26.758395195007324, 109.0
26.76899027824402, 119.0
26.781002283096313, 114.0
26.792664527893066, 105.0
26.803903818130493, 117.0
26.814846992492676, 114.0
26.82694435119629, 109.0
26.8376886844635, 115.0
26.85043478012085, 102.0
26.861351490020752, 113.0
26.873042345046997, 111.0
26.883687496185303, 117.0
26.894933462142944, 117.0
26.905298233032227, 120.0
26.916972875595093, 114.0
26.92792320251465, 113.0
26.940403938293457, 102.0
26.952653884887695, 100.0
26.965312242507935, 108.0
26.97785472869873, 97.0
26.990366458892822, 101.0
27.002248525619507, 102.0
27.014333486557007, 106.0
27.02603816986084, 103.0
27.03827667236328, 104.0
27.049697399139404, 108.0
27.06261682510376, 99.0
27.074231147766113, 106.0
27.08644127845764, 105.0
27.09789204597473, 106.0
27.109771490097046, 113.0
27.12065815925598, 114.0
27.134929895401, 91.0
27.147493600845337, 96.0
27.160101890563965, 108.0
27.17145872116089, 109.0
27.18400263786316, 107.0
27.195151567459106, 110.0
27.20840358734131, 98.0
27.219615697860718, 110.0
27.232447147369385, 99.0
27.242836236953735, 120.0
27.253687620162964, 126.0
27.26380491256714, 126.0
27.277220964431763, 96.0
27.289175510406494, 102.0
27.300132989883423, 127.0
27.310624361038208, 121.0
27.321574449539185, 127.0
27.332042455673218, 123.0
27.343873739242554, 119.0
27.354335069656372, 118.0
27.366389513015747, 106.0
27.376875638961792, 119.0
27.387822151184082, 125.0
27.398282051086426, 120.0
27.41039538383484, 108.0
27.421217679977417, 116.0
27.43200993537903, 128.0
27.44253134727478, 130.0
27.452515840530396, 126.0
27.463475942611694, 125.0
27.473692417144775, 124.0
27.48539447784424, 109.0
27.495255708694458, 129.0
27.505771160125732, 131.0
27.515180587768555, 134.0
27.5254123210907, 137.0
27.53449010848999, 140.0
27.54468870162964, 133.0
27.55417013168335, 132.0
27.564653396606445, 133.0
27.573633909225464, 142.0
27.583391189575195, 146.0
27.592916011810303, 144.0
27.60291576385498, 140.0
27.611915111541748, 143.0
27.621856212615967, 143.0
27.63166618347168, 128.0
27.643314123153687, 112.0
27.654163122177124, 126.0
27.66481590270996, 125.0
27.675049304962158, 121.0
27.68767499923706, 100.0
27.69885563850403, 110.0
27.709877490997314, 120.0
27.721301317214966, 106.0
27.73300790786743, 111.0
27.745479583740234, 104.0
27.758766889572144, 95.0
27.77125644683838, 98.0
27.785720825195312, 90.0
27.799498558044434, 85.0
27.813127756118774, 91.0
27.82598328590393, 92.0
27.8401997089386, 86.0
27.850637197494507, 120.0
27.862401962280273, 110.0
27.871964931488037, 135.0
27.88316249847412, 118.0
27.89223885536194, 147.0
27.90261459350586, 130.0
27.91150951385498, 145.0
27.921481609344482, 144.0
27.93010663986206, 151.0
27.94115686416626, 121.0
27.950015783309937, 151.0
27.960395097732544, 134.0
27.968947410583496, 153.0
27.979504346847534, 128.0
27.988614559173584, 163.0
27.999217987060547, 127.0
28.00942325592041, 148.0
28.017812967300415, 156.0
28.027422189712524, 144.0
28.03962230682373, 99.0
28.048436641693115, 153.0
28.057210683822632, 162.0
28.066337823867798, 167.0
28.074570655822754, 160.0
28.083923816680908, 168.0
28.09207320213318, 166.0
28.10285210609436, 125.0
28.111270666122437, 164.0
28.120417594909668, 163.0
28.12857937812805, 165.0
28.13912010192871, 126.0
28.14728879928589, 166.0
28.15648341178894, 163.0
28.1649808883667, 156.0
28.17401671409607, 166.0
28.18223476409912, 165.0
28.192798614501953, 131.0
28.201610326766968, 158.0
28.21226406097412, 128.0
28.2214412689209, 157.0
28.23041009902954, 169.0
28.238665342330933, 163.0
28.24886441230774, 131.0
28.25692367553711, 168.0
28.26598834991455, 163.0
28.274181842803955, 167.0
28.2833034992218, 165.0
28.29365301132202, 130.0
28.305161952972412, 132.0
28.31375026702881, 156.0
28.323446035385132, 148.0
28.331565141677856, 163.0
28.340458631515503, 170.0
28.348389148712158, 172.0
28.35868501663208, 132.0
28.3672034740448, 170.0
28.375861406326294, 173.0
28.383856534957886, 170.0
28.392470359802246, 174.0
28.40070629119873, 162.0
28.4095721244812, 172.0
28.418522357940674, 145.0
28.429905891418457, 117.0
28.438705444335938, 157.0
28.448280811309814, 156.0
28.457309246063232, 158.0
28.46674633026123, 156.0
28.475668907165527, 149.0
28.485103130340576, 158.0
28.49358344078064, 158.0
28.502988576889038, 157.0
28.51096796989441, 175.0
28.519351720809937, 178.0
28.527133226394653, 174.0
28.53476572036743, 175.0
