2.1229653358459473, 615.0
2.1496241092681885, 608.0
2.1811468601226807, 600.0
2.2082459926605225, 598.0
2.2338645458221436, 562.0
2.2602062225341797, 597.0
2.2872397899627686, 580.0
2.313080310821533, 596.0
2.339031934738159, 576.0
2.3650381565093994, 584.0
2.391378164291382, 583.0
2.420016288757324, 577.0
2.4468836784362793, 609.0
2.4750161170959473, 621.0
2.502079725265503, 604.0
2.5295777320861816, 598.0
2.555454730987549, 580.0
2.583066701889038, 598.0
2.6097192764282227, 580.0
2.636199951171875, 590.0
2.662888765335083, 605.0
2.690957546234131, 606.0
2.7179925441741943, 609.0
2.745490312576294, 573.0
2.772259473800659, 606.0
2.7982664108276367, 576.0
2.8239951133728027, 575.0
2.848710536956787, 556.0
2.8742306232452393, 560.0
2.9040398597717285, 571.0
2.93021821975708, 573.0
2.956798553466797, 590.0
2.9821865558624268, 561.0
3.007901906967163, 570.0
3.0326626300811768, 560.0
3.058394193649292, 566.0
3.084414005279541, 589.0
3.1101274490356445, 574.0
3.1361000537872314, 571.0
3.1614134311676025, 588.0
3.186028242111206, 559.0
3.2114951610565186, 560.0
3.234694242477417, 538.0
3.2590386867523193, 560.0
3.2832419872283936, 546.0
3.3076400756835938, 561.0
3.3319780826568604, 560.0
3.3593156337738037, 532.0
3.3833048343658447, 556.0
3.4064362049102783, 546.0
3.432421922683716, 542.0
3.4561963081359863, 545.0
3.4793548583984375, 548.0
3.5024454593658447, 536.0
3.525515079498291, 552.0
3.5495080947875977, 538.0
3.5747547149658203, 539.0
3.5987632274627686, 533.0
3.629478693008423, 524.0
3.6555404663085938, 515.0
3.6789119243621826, 522.0
3.701822519302368, 530.0
3.7248799800872803, 521.0
3.7464852333068848, 527.0
3.7698209285736084, 531.0
3.7911171913146973, 502.0
3.813141345977783, 504.0
3.835360527038574, 524.0
3.8580493927001953, 504.0
3.8797264099121094, 504.0
3.905333995819092, 503.0
3.930510997772217, 506.0
3.95278000831604, 508.0
3.97757887840271, 509.0
4.00048565864563, 489.0
4.023060083389282, 502.0
4.043835163116455, 484.0
4.063959360122681, 465.0
4.084644317626953, 491.0
4.105499982833862, 472.0
4.1258604526519775, 466.0
4.146039247512817, 472.0
4.166324853897095, 449.0
4.1872594356536865, 473.0
4.208157300949097, 488.0
4.228852272033691, 481.0
4.248788118362427, 449.0
4.2687671184539795, 474.0
4.2888288497924805, 459.0
4.311598539352417, 435.0
4.332115411758423, 460.0
4.351451635360718, 439.0
4.371274709701538, 432.0
4.390091896057129, 429.0
4.409727334976196, 434.0
4.429247617721558, 430.0
4.448007345199585, 439.0
4.466827869415283, 427.0
4.485501766204834, 425.0
4.504329681396484, 445.0
4.522587299346924, 421.0
4.540876626968384, 419.0
4.562220811843872, 407.0
4.5820472240448, 408.0
4.602133274078369, 421.0
4.621102809906006, 414.0
4.640323638916016, 410.0
4.659420967102051, 405.0
4.678740739822388, 421.0
4.698213577270508, 413.0
4.717882394790649, 418.0
4.737163066864014, 397.0
4.7577064037323, 413.0
4.777246475219727, 404.0
4.796525478363037, 409.0
4.8162524700164795, 425.0
4.836837291717529, 415.0
4.85701322555542, 393.0
4.8819074630737305, 407.0
4.902063608169556, 397.0
4.929460287094116, 404.0
4.950873851776123, 418.0
4.971466541290283, 435.0
4.992851734161377, 429.0
5.0148234367370605, 459.0
5.0368125438690186, 468.0
5.059096813201904, 457.0
5.081567049026489, 483.0
5.102931022644043, 455.0
5.125014305114746, 476.0
5.146812200546265, 462.0
5.1691906452178955, 501.0
5.192708253860474, 516.0
5.215127468109131, 498.0
5.2375266551971436, 511.0
5.260659456253052, 536.0
5.284113883972168, 542.0
5.3074774742126465, 543.0
5.330616474151611, 546.0
5.354317903518677, 563.0
5.377563238143921, 562.0
5.400853395462036, 564.0
5.424866676330566, 563.0
5.4491190910339355, 563.0
5.475624322891235, 597.0
5.4984776973724365, 588.0
5.523550033569336, 556.0
5.5466508865356445, 568.0
5.5708863735198975, 587.0
5.594196081161499, 570.0
5.617100954055786, 577.0
5.640074968338013, 585.0
5.662955045700073, 571.0
5.684923410415649, 568.0
5.7074079513549805, 569.0
5.730757236480713, 573.0
5.7535388469696045, 606.0
5.776418209075928, 585.0
5.798112630844116, 564.0
5.820946216583252, 599.0
5.842550754547119, 554.0
5.8651533126831055, 593.0
5.887375116348267, 550.0
5.908689975738525, 550.0
5.930053234100342, 555.0
5.955182075500488, 566.0
5.975846767425537, 532.0
5.997200012207031, 556.0
6.018486261367798, 547.0
6.038721323013306, 509.0
6.059483766555786, 519.0
6.082525014877319, 524.0
6.103025436401367, 491.0
6.122816562652588, 511.0
6.142913818359375, 511.0
6.162555456161499, 511.0
6.182037353515625, 495.0
6.2013938426971436, 501.0
6.219876050949097, 473.0
6.238760948181152, 446.0
6.257510423660278, 461.0
6.276626825332642, 474.0
6.29549241065979, 449.0
6.314259052276611, 452.0
6.332357883453369, 421.0
6.3503663539886475, 424.0
6.368491888046265, 423.0
6.386893272399902, 406.0
6.404847860336304, 415.0
6.425100088119507, 422.0
6.442806005477905, 402.0
6.460753440856934, 398.0
6.478137731552124, 402.0
6.495163440704346, 379.0
6.514462232589722, 401.0
6.53137731552124, 377.0
6.548470497131348, 392.0
6.565452337265015, 400.0
6.582304000854492, 388.0
6.5992209911346436, 386.0
6.616127014160156, 382.0
6.632889032363892, 391.0
6.64988899230957, 416.0
6.6676344871521, 422.0
6.68516206741333, 412.0
6.702981233596802, 425.0
6.720402240753174, 415.0
6.739108085632324, 412.0
6.757913589477539, 438.0
6.7763307094573975, 442.0
6.794752597808838, 433.0
6.813849925994873, 434.0
6.832578420639038, 423.0
6.850667238235474, 425.0
6.868673086166382, 414.0
6.886845588684082, 415.0
6.904661417007446, 411.0
6.921936273574829, 384.0
6.939116954803467, 391.0
6.961781740188599, 371.0
6.981848478317261, 357.0
6.997606039047241, 349.0
7.013572692871094, 331.0
7.027986526489258, 314.0
7.043441534042358, 316.0
7.057666778564453, 310.0
7.073071479797363, 319.0
7.0872814655303955, 292.0
7.101667642593384, 281.0
7.114772319793701, 268.0
7.129679441452026, 273.0
7.142223834991455, 254.0
7.156074523925781, 250.0
7.168423891067505, 240.0
7.181482315063477, 219.0
7.194037675857544, 220.0
7.206984281539917, 221.0
7.219724893569946, 208.0
7.23242974281311, 213.0
7.244428873062134, 216.0
7.2570481300354, 203.0
7.268554449081421, 203.0
7.280758619308472, 218.0
7.2919862270355225, 212.0
7.304141521453857, 203.0
7.315337419509888, 218.0
7.328211307525635, 225.0
7.339862585067749, 218.0
7.352511882781982, 234.0
7.364175796508789, 221.0
7.376803874969482, 211.0
7.3889429569244385, 220.0
7.402143478393555, 250.0
7.4174206256866455, 243.0
7.430776834487915, 265.0
7.443464040756226, 288.0
7.457512140274048, 290.0
7.47025203704834, 290.0
7.484247922897339, 300.0
7.497039079666138, 301.0
7.511031627655029, 286.0
7.524924278259277, 304.0
7.539817571640015, 300.0
7.554171085357666, 312.0
7.569504737854004, 316.0
7.583756685256958, 321.0
7.5991034507751465, 308.0
7.6127705574035645, 329.0
7.627992391586304, 315.0
7.641028165817261, 299.0
7.655594825744629, 304.0
7.669029235839844, 315.0
7.683217287063599, 301.0
7.697018146514893, 322.0
7.711922645568848, 310.0
7.726701259613037, 301.0
7.742031097412109, 306.0
7.755563020706177, 292.0
7.7696545124053955, 284.0
7.783076047897339, 280.0
7.7971107959747314, 279.0
7.80991792678833, 282.0
7.82388973236084, 289.0
7.836908340454102, 274.0
7.851344108581543, 270.0
7.863492965698242, 251.0
7.877003908157349, 280.0
7.889726161956787, 270.0
7.903193712234497, 285.0
7.9156248569488525, 282.0
7.928640604019165, 286.0
7.941448926925659, 301.0
7.95534873008728, 300.0
7.970390319824219, 278.0
7.984955549240112, 284.0
7.997513055801392, 275.0
8.011070251464844, 291.0
8.023834705352783, 283.0
8.037342309951782, 300.0
8.050410032272339, 287.0
8.06413745880127, 305.0
8.076963901519775, 294.0
8.09150218963623, 280.0
8.10381293296814, 272.0
8.117096424102783, 285.0
8.129734992980957, 295.0
8.14290976524353, 265.0
8.155068159103394, 263.0
8.1683828830719, 271.0
8.180634021759033, 270.0
8.193859100341797, 278.0
8.20726728439331, 273.0
8.220095872879028, 277.0
8.233933925628662, 270.0
8.246932983398438, 268.0
8.259017944335938, 260.0
8.271914958953857, 250.0
8.283917903900146, 247.0
8.29606556892395, 240.0
8.307814121246338, 247.0
8.319862842559814, 231.0
8.331186294555664, 238.0
8.34342885017395, 247.0
8.356022834777832, 267.0
8.368577003479004, 282.0
8.380032300949097, 263.0
8.392431497573853, 256.0
8.404276609420776, 264.0
8.418364763259888, 248.0
8.430670499801636, 253.0
8.444216966629028, 264.0
8.456624984741211, 257.0
8.468477725982666, 240.0
8.480968952178955, 242.0
8.494919776916504, 253.0
8.508758068084717, 259.0
8.521882057189941, 270.0
8.534700632095337, 272.0
8.547886848449707, 255.0
8.560313701629639, 260.0
8.572274684906006, 260.0
8.58466625213623, 257.0
8.597319841384888, 256.0
8.60995078086853, 261.0
8.622801780700684, 257.0
8.635086059570312, 262.0
8.647955656051636, 275.0
8.660310745239258, 254.0
8.67238736152649, 241.0
8.684698104858398, 259.0
8.696338176727295, 243.0
8.708705186843872, 242.0
8.720446109771729, 241.0
8.732637166976929, 235.0
8.744383335113525, 225.0
8.756415367126465, 222.0
8.768722295761108, 222.0
8.780819177627563, 221.0
8.792615413665771, 224.0
8.805243253707886, 221.0
8.820765256881714, 227.0
8.832215309143066, 219.0
8.84470510482788, 202.0
8.856236696243286, 206.0
8.868852376937866, 201.0
8.88040542602539, 204.0
8.892247915267944, 212.0
8.904558658599854, 220.0
8.916383981704712, 219.0
8.928308963775635, 226.0
8.940374612808228, 228.0
8.953351020812988, 228.0
8.96552038192749, 230.0
8.978267908096313, 248.0
8.993791580200195, 223.0
9.00654911994934, 222.0
9.01975393295288, 216.0
9.03196096420288, 227.0
9.043489933013916, 217.0
9.055464744567871, 218.0
9.067797899246216, 219.0
9.079786777496338, 199.0
9.093039751052856, 185.0
9.1055326461792, 200.0
9.11736798286438, 195.0
9.129384994506836, 184.0
9.141381978988647, 196.0
9.152780771255493, 191.0
9.163569688796997, 182.0
9.175384998321533, 166.0
9.188369035720825, 177.0
9.199583053588867, 194.0
9.211381673812866, 198.0
9.222548007965088, 194.0
9.234379291534424, 205.0
9.24637770652771, 209.0
9.25739049911499, 205.0
9.268766641616821, 220.0
9.279622793197632, 214.0
9.290954828262329, 203.0
9.301931142807007, 199.0
9.313003301620483, 212.0
9.32386064529419, 207.0
9.334800481796265, 211.0
9.345853805541992, 214.0
9.356494903564453, 195.0
9.368376970291138, 220.0
9.379873991012573, 200.0
9.390940427780151, 218.0
9.40201735496521, 204.0
9.412905931472778, 200.0
9.425370931625366, 191.0
9.435795545578003, 194.0
9.446524143218994, 192.0
9.457693815231323, 196.0
9.468313694000244, 179.0
9.47886848449707, 174.0
9.489875793457031, 183.0
9.50137448310852, 176.0
9.512857437133789, 178.0
9.524369239807129, 178.0
9.535329103469849, 171.0
9.545858144760132, 176.0
9.556705236434937, 173.0
9.567651271820068, 180.0
9.578774690628052, 175.0
9.590382099151611, 168.0
9.603816270828247, 176.0
9.6148841381073, 167.0
9.62619924545288, 169.0
9.636924028396606, 182.0
9.649016618728638, 194.0
9.661253452301025, 203.0
9.672765731811523, 194.0
9.684098958969116, 218.0
9.696121454238892, 215.0
9.708250999450684, 230.0
9.720127582550049, 218.0
9.732183933258057, 230.0
9.744614362716675, 250.0
9.757726192474365, 243.0
9.7704598903656, 251.0
9.783905029296875, 270.0
9.798174381256104, 271.0
9.811306715011597, 284.0
9.825879335403442, 287.0
9.83970832824707, 297.0
9.854053020477295, 330.0
9.87488579750061, 320.0
9.896057367324829, 340.0
9.91389799118042, 354.0
9.930198431015015, 378.0
9.946426391601562, 375.0
9.964970350265503, 409.0
9.982691049575806, 408.0
10.010047435760498, 409.0
10.028703689575195, 430.0
10.04688549041748, 411.0
10.06484079360962, 425.0
10.083524703979492, 454.0
10.101748704910278, 457.0
10.119635820388794, 420.0
10.137168884277344, 412.0
10.154068231582642, 389.0
10.170360088348389, 366.0
10.186741828918457, 391.0
10.203999280929565, 404.0
10.221835374832153, 409.0
10.238872528076172, 401.0
10.2554931640625, 385.0
10.272528648376465, 401.0
10.290099859237671, 403.0
10.308109998703003, 394.0
10.325869798660278, 418.0
10.344589948654175, 438.0
10.363400220870972, 449.0
10.383817195892334, 466.0
10.404256582260132, 454.0
10.425358295440674, 469.0
10.447044610977173, 472.0
10.467633485794067, 489.0
10.488258361816406, 475.0
10.50863766670227, 494.0
10.529108047485352, 470.0
10.549699783325195, 479.0
10.569514513015747, 483.0
10.589675903320312, 481.0
10.610018968582153, 481.0
10.629189252853394, 475.0
10.649553298950195, 485.0
10.66958498954773, 469.0
10.69090747833252, 475.0
10.710313558578491, 463.0
10.729832410812378, 459.0
10.748765468597412, 453.0
10.767537117004395, 456.0
10.786382675170898, 464.0
10.80592942237854, 437.0
10.8244309425354, 447.0
10.843440294265747, 440.0
10.862062692642212, 422.0
10.880666732788086, 440.0
10.900066614151001, 446.0
10.919860601425171, 469.0
10.940332651138306, 469.0
10.960575103759766, 485.0
10.980041980743408, 459.0
11.000656366348267, 490.0
11.027888774871826, 462.0
11.048712253570557, 504.0
11.069101572036743, 484.0
11.090071678161621, 483.0
11.110513687133789, 483.0
11.13071584701538, 489.0
11.150365829467773, 504.0
11.170500755310059, 487.0
11.190783023834229, 465.0
11.209012746810913, 436.0
11.226510763168335, 429.0
11.244023561477661, 437.0
11.260046482086182, 387.0
11.276990413665771, 380.0
11.293387174606323, 378.0
11.308054685592651, 359.0
11.322444677352905, 330.0
11.336976528167725, 339.0
11.350600242614746, 302.0
11.364539861679077, 290.0
11.377896070480347, 283.0
11.390461683273315, 285.0
11.40438723564148, 282.0
11.419645547866821, 290.0
11.432175159454346, 241.0
11.444856643676758, 216.0
11.45755648612976, 224.0
11.469402313232422, 235.0
11.481402397155762, 246.0
11.493513345718384, 237.0
11.5059072971344, 232.0
11.518539905548096, 228.0
11.530405521392822, 220.0
11.542604684829712, 229.0
11.554622411727905, 232.0
11.566673517227173, 230.0
11.579023838043213, 255.0
11.592016458511353, 244.0
11.605126857757568, 261.0
11.617908000946045, 263.0
11.631202936172485, 242.0
11.64427638053894, 246.0
11.656441926956177, 247.0
11.669560432434082, 237.0
11.681873321533203, 238.0
11.694356441497803, 246.0
11.70710563659668, 237.0
11.72002387046814, 256.0
11.732504844665527, 246.0
11.746081829071045, 257.0
11.759134769439697, 259.0
11.773783206939697, 275.0
11.787660837173462, 282.0
11.801824808120728, 272.0
11.815272331237793, 261.0
11.830862760543823, 294.0
11.844987630844116, 293.0
11.858781337738037, 295.0
11.87259292602539, 281.0
11.887134552001953, 304.0
11.90204906463623, 299.0
11.916414737701416, 319.0
11.931164979934692, 314.0
11.946422100067139, 332.0
11.961685419082642, 337.0
11.9773850440979, 339.0
11.997463941574097, 367.0
12.014717817306519, 371.0
12.035155057907104, 366.0
12.05324935913086, 357.0
12.06934666633606, 378.0
12.085613489151001, 394.0
12.104099035263062, 383.0
12.121060609817505, 396.0
12.137622117996216, 383.0
12.153834581375122, 375.0
12.170260906219482, 372.0
12.186665534973145, 402.0
12.203491926193237, 397.0
12.220600128173828, 378.0
12.236744403839111, 369.0
12.253695487976074, 387.0
12.269919633865356, 370.0
12.285698652267456, 363.0
12.30246090888977, 359.0
12.318114995956421, 360.0
12.333373546600342, 326.0
12.348548889160156, 325.0
12.364101886749268, 345.0
12.379027605056763, 323.0
12.394490957260132, 339.0
12.41052508354187, 326.0
12.429749488830566, 372.0
12.447481870651245, 353.0
12.463562726974487, 363.0
12.480326175689697, 379.0
12.496834516525269, 376.0
12.512596368789673, 340.0
12.528806447982788, 360.0
12.544774770736694, 367.0
12.560903549194336, 367.0
12.577077865600586, 363.0
12.593252897262573, 371.0
12.61142635345459, 367.0
12.627808094024658, 373.0
12.6443612575531, 366.0
12.660789489746094, 375.0
12.677219867706299, 373.0
12.695139408111572, 380.0
12.712345361709595, 378.0
12.728752613067627, 379.0
12.744470119476318, 344.0
12.760387420654297, 357.0
12.775999069213867, 344.0
12.790752410888672, 336.0
12.80722188949585, 338.0
12.823190927505493, 326.0
12.838683128356934, 322.0
12.854385614395142, 351.0
12.86960744857788, 320.0
12.884754657745361, 327.0
12.90006971359253, 331.0
12.915053129196167, 333.0
12.930690050125122, 351.0
12.94640040397644, 354.0
12.96226716041565, 357.0
12.978400468826294, 356.0
12.996314287185669, 358.0
13.011435270309448, 355.0
13.026230096817017, 331.0
13.042922019958496, 346.0
13.063393354415894, 334.0
13.078903913497925, 338.0
13.094175815582275, 319.0
13.10959529876709, 334.0
13.124430656433105, 339.0
13.140187501907349, 339.0
13.155203342437744, 335.0
13.170343160629272, 327.0
13.185442924499512, 323.0
13.200483560562134, 317.0
13.215840101242065, 318.0
13.230867862701416, 322.0
13.246090650558472, 314.0
13.260868072509766, 329.0
13.275198459625244, 305.0
13.291110754013062, 316.0
13.305623292922974, 310.0
13.319953203201294, 278.0
13.333230972290039, 277.0
13.347018957138062, 276.0
13.36190390586853, 291.0
13.376307249069214, 292.0
13.390387296676636, 302.0
13.4048011302948, 325.0
13.420396566390991, 317.0
13.436708211898804, 360.0
13.452219724655151, 347.0
13.468257188796997, 363.0
13.48476266860962, 397.0
13.502363920211792, 409.0
13.519834518432617, 401.0
13.537404537200928, 399.0
13.556843757629395, 391.0
13.577577352523804, 419.0
13.59419584274292, 369.0
13.611536502838135, 387.0
13.627746820449829, 375.0
13.643999814987183, 367.0
13.660000324249268, 368.0
13.676393032073975, 368.0
13.692731380462646, 364.0
13.708698034286499, 360.0
13.724718809127808, 364.0
13.741814136505127, 387.0
13.759493350982666, 389.0
13.77585768699646, 363.0
13.791940212249756, 378.0
13.807598352432251, 347.0
13.823406219482422, 339.0
13.838670492172241, 325.0
13.85452675819397, 343.0
13.87028169631958, 343.0
13.885281562805176, 332.0
13.90070915222168, 327.0
13.91604495048523, 333.0
13.930914402008057, 323.0
13.946692943572998, 349.0
13.96251630783081, 347.0
13.977374076843262, 334.0
13.992417097091675, 312.0
14.00710678100586, 311.0
14.021645784378052, 307.0
14.036093950271606, 293.0
14.05081820487976, 309.0
14.071768283843994, 312.0
14.085882663726807, 284.0
14.09987473487854, 278.0
14.114953994750977, 270.0
14.129655122756958, 272.0
14.143325805664062, 296.0
14.157435178756714, 289.0
14.17223310470581, 294.0
14.186893463134766, 290.0
14.204128503799438, 301.0
14.218871831893921, 282.0
14.23437786102295, 311.0
14.248767375946045, 304.0
14.264115333557129, 314.0
14.279058933258057, 300.0
14.294357776641846, 311.0
14.310266017913818, 321.0
14.32637643814087, 335.0
14.341712236404419, 332.0
14.357167720794678, 332.0
14.373119115829468, 346.0
14.389265298843384, 351.0
14.404683351516724, 353.0
14.422452688217163, 348.0
14.438043355941772, 364.0
14.45475459098816, 359.0
14.47068977355957, 357.0
14.486404180526733, 346.0
14.502504825592041, 332.0
14.519055604934692, 359.0
14.534789085388184, 356.0
14.550844669342041, 342.0
14.566770553588867, 367.0
14.583532571792603, 373.0
14.599637031555176, 358.0
14.617120504379272, 359.0
14.634080410003662, 356.0
14.650962352752686, 376.0
14.66931414604187, 388.0
14.686789274215698, 385.0
14.705078840255737, 419.0
14.724554061889648, 438.0
14.7473464012146, 438.0
14.76710319519043, 444.0
14.78645944595337, 439.0
14.806101322174072, 447.0
14.826081275939941, 461.0
14.846867322921753, 485.0
14.866806983947754, 481.0
14.88709306716919, 460.0
14.907855987548828, 487.0
14.928390741348267, 485.0
14.948438167572021, 476.0
14.968836069107056, 470.0
14.988914251327515, 450.0
15.009454727172852, 464.0
15.029855728149414, 477.0
15.049643993377686, 481.0
15.068995952606201, 470.0
15.093315839767456, 466.0
15.114501476287842, 462.0
15.134149551391602, 448.0
15.152832269668579, 440.0
15.172757625579834, 435.0
15.191956043243408, 437.0
15.211490392684937, 444.0
15.230241775512695, 420.0
15.24994945526123, 434.0
15.268938541412354, 436.0
15.28790807723999, 433.0
15.306012153625488, 405.0
15.324496269226074, 431.0
15.341767311096191, 406.0
15.359452247619629, 409.0
15.377445220947266, 405.0
15.394618511199951, 394.0
15.411250591278076, 385.0
15.429550647735596, 377.0
15.445469856262207, 354.0
15.461185932159424, 341.0
15.476316928863525, 345.0
15.492324829101562, 337.0
15.507532596588135, 341.0
15.524059772491455, 354.0
15.539459466934204, 343.0
15.555284023284912, 335.0
15.570777177810669, 352.0
15.586419820785522, 339.0
15.603430271148682, 340.0
15.618915557861328, 334.0
15.634283304214478, 333.0
15.649451732635498, 322.0
15.66384482383728, 304.0
15.679804563522339, 306.0
15.694993734359741, 301.0
15.709823846817017, 303.0
15.72343635559082, 283.0
15.737295627593994, 302.0
15.750688314437866, 281.0
15.76391339302063, 267.0
15.777810335159302, 248.0
15.790188074111938, 255.0
15.802722215652466, 235.0
15.814939975738525, 221.0
15.827415943145752, 222.0
15.839711666107178, 211.0
15.851750135421753, 217.0
15.863457202911377, 223.0
15.875154495239258, 212.0
15.886560916900635, 197.0
15.898196458816528, 196.0
15.909035921096802, 172.0
15.921382188796997, 169.0
15.939627647399902, 176.0
15.95818042755127, 168.0
15.97175931930542, 160.0
15.981821060180664, 159.0
15.991468667984009, 143.0
16.001271963119507, 146.0
16.01538920402527, 145.0
16.025049209594727, 149.0
16.034465551376343, 137.0
16.04394817352295, 146.0
16.053283214569092, 138.0
16.063153982162476, 144.0
16.072571516036987, 137.0
16.0823175907135, 149.0
16.09346842765808, 144.0
16.105886936187744, 139.0
16.115636825561523, 137.0
16.12519407272339, 146.0
16.134568452835083, 145.0
16.144193649291992, 147.0
16.153515577316284, 145.0
16.162786722183228, 141.0
16.172508716583252, 142.0
16.182731866836548, 135.0
16.192249059677124, 144.0
16.20166540145874, 149.0
16.212438583374023, 148.0
16.22198462486267, 142.0
16.231508493423462, 145.0
16.2410089969635, 142.0
16.25065803527832, 156.0
16.26025676727295, 163.0
16.270060539245605, 153.0
16.280102968215942, 153.0
16.289796829223633, 144.0
16.29972195625305, 143.0
16.309639930725098, 133.0
16.319249868392944, 152.0
16.329137802124023, 148.0
16.338398694992065, 119.0
16.347642421722412, 113.0
16.356650590896606, 96.0
16.365968227386475, 113.0
16.375503540039062, 116.0
16.384922981262207, 103.0
16.395346641540527, 129.0
16.40518021583557, 126.0
16.417114734649658, 138.0
16.427398920059204, 140.0
16.438215970993042, 164.0
16.45016360282898, 217.0
16.462736129760742, 254.0
16.475707530975342, 278.0
16.489357709884644, 303.0
16.5029559135437, 299.0
16.516653299331665, 297.0
16.53041434288025, 310.0
16.544472455978394, 317.0
16.558269500732422, 318.0
16.573189735412598, 317.0
16.588398694992065, 322.0
16.605369567871094, 328.0
16.619986057281494, 309.0
16.635302305221558, 309.0
16.649083375930786, 309.0
16.663511276245117, 311.0
16.677671670913696, 327.0
16.69289803504944, 337.0
16.706591606140137, 307.0
16.721718072891235, 322.0
16.736610651016235, 341.0
16.752301692962646, 333.0
16.76662588119507, 321.0
16.781050443649292, 325.0
16.794723749160767, 314.0
16.809121131896973, 324.0
16.82304811477661, 327.0
16.837066411972046, 302.0
16.850481033325195, 301.0
16.86608052253723, 319.0
16.87993335723877, 317.0
16.894397974014282, 307.0
16.90919041633606, 325.0
16.92459225654602, 352.0
16.93915867805481, 352.0
16.95447874069214, 359.0
16.96886157989502, 347.0
16.98452138900757, 363.0
16.99919843673706, 349.0
17.01430654525757, 344.0
17.028958797454834, 348.0
17.04449701309204, 370.0
17.0591459274292, 346.0
17.07454514503479, 365.0
17.08840036392212, 320.0
17.1031653881073, 327.0
17.120213985443115, 314.0
17.13541269302368, 284.0
17.148621559143066, 274.0
17.161921501159668, 263.0
17.17481827735901, 275.0
17.188696146011353, 276.0
17.201239824295044, 279.0
17.214940071105957, 272.0
17.227686166763306, 280.0
17.241697311401367, 298.0
17.25802493095398, 316.0
17.273205995559692, 314.0
17.28717565536499, 300.0
17.30055284500122, 270.0
17.313137531280518, 270.0
17.3266339302063, 279.0
17.34009861946106, 311.0
17.354029178619385, 304.0
17.367899656295776, 309.0
17.381831884384155, 316.0
17.395148515701294, 312.0
17.409430742263794, 320.0
17.424870252609253, 336.0
17.439794301986694, 319.0
17.45523476600647, 313.0
17.470126152038574, 321.0
17.48417019844055, 320.0
17.499186754226685, 328.0
17.51444935798645, 330.0
17.529491662979126, 327.0
17.54419469833374, 339.0
17.559666633605957, 314.0
17.574431896209717, 326.0
17.589609622955322, 347.0
17.604247093200684, 350.0
17.620872497558594, 345.0
17.635679244995117, 332.0
17.65070104598999, 338.0
17.665343046188354, 350.0
17.680613040924072, 351.0
17.696032762527466, 353.0
17.7111759185791, 348.0
17.72648572921753, 329.0
17.741179943084717, 316.0
17.755248308181763, 330.0
17.77081537246704, 341.0
17.786300897598267, 331.0
17.80088758468628, 317.0
17.81438159942627, 322.0
17.82859468460083, 304.0
17.84131693840027, 281.0
17.855233192443848, 275.0
17.868692636489868, 266.0
17.881871223449707, 253.0
17.893914222717285, 248.0
17.906439304351807, 241.0
17.9184832572937, 257.0
17.931148052215576, 261.0
17.94389772415161, 287.0
17.958704471588135, 284.0
17.97140073776245, 268.0
17.988775491714478, 290.0
18.001863479614258, 282.0
18.01572275161743, 305.0
18.035343408584595, 307.0
18.049771547317505, 290.0
18.06293821334839, 300.0
18.076996088027954, 313.0
18.090466022491455, 315.0
18.104857683181763, 312.0
18.1198890209198, 318.0
18.13995909690857, 310.0
18.154014348983765, 318.0
18.167452335357666, 297.0
18.179760456085205, 270.0
18.19286346435547, 256.0
18.205321788787842, 277.0
18.2190158367157, 267.0
18.232848167419434, 274.0
18.246034145355225, 264.0
18.25835156440735, 279.0
18.27152705192566, 272.0
18.28374934196472, 260.0
18.297520399093628, 256.0
18.310434341430664, 261.0
18.323529958724976, 264.0
18.335795879364014, 276.0
18.348759174346924, 264.0
18.361165046691895, 262.0
18.37533664703369, 278.0
18.388075351715088, 270.0
18.401302337646484, 283.0
18.41355013847351, 254.0
18.428863763809204, 266.0
18.44216012954712, 276.0
18.454940795898438, 274.0
18.468591690063477, 292.0
18.481246948242188, 287.0
18.495465993881226, 312.0
18.507992267608643, 292.0
18.521414518356323, 295.0
18.534419536590576, 308.0
18.548237323760986, 301.0
18.56128215789795, 306.0
18.57576012611389, 305.0
18.599178314208984, 310.0
18.614959239959717, 310.0
18.629147052764893, 305.0
18.644017934799194, 309.0
18.657089710235596, 289.0
18.671273469924927, 304.0
18.68427324295044, 292.0
18.698034524917603, 281.0
18.710969924926758, 281.0
18.72571873664856, 276.0
18.738645792007446, 290.0
18.751864433288574, 268.0
18.764686346054077, 282.0
18.778440475463867, 280.0
18.79182529449463, 273.0
18.805312871932983, 285.0
18.817686080932617, 268.0
18.8306782245636, 261.0
18.842827320098877, 264.0
18.85597825050354, 271.0
18.86820363998413, 252.0
18.88103151321411, 252.0
18.8929226398468, 251.0
18.905409574508667, 241.0
18.916943788528442, 240.0
18.929611682891846, 249.0
18.941791772842407, 246.0
18.954328298568726, 260.0
18.965872287750244, 257.0
18.97806453704834, 237.0
18.98965859413147, 243.0
19.001527786254883, 241.0
19.016144514083862, 236.0
19.0277361869812, 256.0
19.040069341659546, 249.0
19.05120277404785, 227.0
19.06326937675476, 229.0
19.074918031692505, 226.0
19.087947607040405, 233.0
19.09918522834778, 230.0
19.111458778381348, 241.0
19.122743606567383, 235.0
19.13483166694641, 231.0
19.150189638137817, 243.0
19.16398310661316, 237.0
19.175750970840454, 242.0
19.189083337783813, 245.0
19.2004976272583, 240.0
19.21259832382202, 221.0
19.224673748016357, 215.0
19.236058473587036, 204.0
19.246861457824707, 195.0
19.258895874023438, 207.0
19.268941640853882, 170.0
19.279993772506714, 183.0
19.290271997451782, 176.0
19.301557302474976, 194.0
19.3130624294281, 202.0
19.32508945465088, 223.0
19.33650803565979, 233.0
19.349920511245728, 281.0
19.362234115600586, 274.0
19.37566328048706, 279.0
19.388250827789307, 275.0
19.4027738571167, 309.0
19.417918920516968, 316.0
19.43141007423401, 295.0
19.445188760757446, 316.0
19.46033000946045, 322.0
19.474823713302612, 321.0
19.490673065185547, 367.0
19.507171392440796, 392.0
19.524404764175415, 400.0
19.54154634475708, 426.0
19.562816619873047, 431.0
19.58086371421814, 441.0
19.599151134490967, 430.0
19.618108987808228, 448.0
19.63660502433777, 448.0
19.65531015396118, 451.0
19.673927307128906, 444.0
19.691842555999756, 442.0
19.710135459899902, 431.0
19.728312015533447, 446.0
19.746968030929565, 429.0
19.766331672668457, 461.0
19.785495042800903, 447.0
19.804185390472412, 455.0
19.822694301605225, 441.0
19.83954620361328, 397.0
19.856365203857422, 388.0
19.8719699382782, 371.0
19.887410640716553, 330.0
19.901813745498657, 332.0
19.91663408279419, 340.0
19.931754112243652, 350.0
19.94571566581726, 293.0
19.958681344985962, 289.0
19.97305130958557, 239.0
19.984275817871094, 223.0
19.996022939682007, 200.0
20.006944179534912, 211.0
20.018306255340576, 195.0
20.028543710708618, 188.0
20.039388179779053, 171.0
20.0493426322937, 164.0
20.059845447540283, 155.0
20.071239233016968, 136.0
20.082730770111084, 141.0
20.092349767684937, 159.0
20.10437250137329, 165.0
20.114087343215942, 164.0
20.124679803848267, 161.0
20.134199380874634, 144.0
20.14470076560974, 136.0
20.15510058403015, 181.0
20.1698215007782, 198.0
20.181262493133545, 213.0
20.19304394721985, 201.0
20.204253435134888, 201.0
20.219590425491333, 221.0
20.230669021606445, 226.0
20.24394178390503, 234.0
20.255845546722412, 253.0
20.268561363220215, 250.0
20.281176328659058, 263.0
20.293923377990723, 255.0
20.3061363697052, 247.0
20.31886911392212, 256.0
20.33168888092041, 253.0
20.345497131347656, 260.0
20.35766077041626, 242.0
20.370694637298584, 254.0
20.383579969406128, 270.0
20.396881580352783, 256.0
20.40838885307312, 251.0
20.422474145889282, 222.0
20.433603048324585, 229.0
20.44524049758911, 207.0
20.455198049545288, 181.0
20.465697050094604, 132.0
20.475370407104492, 131.0
20.48572874069214, 133.0
20.494958639144897, 132.0
20.506260871887207, 93.0
20.51591420173645, 83.0
20.527368545532227, 97.0
20.53663468360901, 131.0
20.54836940765381, 129.0
20.558189630508423, 154.0
20.568898677825928, 157.0
20.578857898712158, 154.0
20.58923602104187, 150.0
20.598921060562134, 172.0
20.60983157157898, 163.0
20.6199791431427, 161.0
20.630040407180786, 147.0
20.639145851135254, 139.0
20.651124477386475, 115.0
20.659868478775024, 103.0
20.672480583190918, 113.0
20.682703256607056, 90.0
20.697460651397705, 69.0
20.707403421401978, 48.0
20.71646285057068, 52.0
20.725157737731934, 61.0
20.73605489730835, 58.0
20.74454164505005, 56.0
20.75427746772766, 68.0
20.763450622558594, 80.0
20.77638339996338, 95.0
20.78629994392395, 118.0
20.798511505126953, 157.0
20.81075692176819, 188.0
20.825470209121704, 219.0
20.83905553817749, 255.0
20.854269981384277, 262.0
20.869324684143066, 307.0
20.8853440284729, 328.0
20.901593685150146, 355.0
20.919843673706055, 371.0
20.939306020736694, 406.0
20.958542108535767, 420.0
20.976637840270996, 433.0
20.99484372138977, 424.0
21.01261019706726, 429.0
21.030957460403442, 416.0
21.048310041427612, 393.0
21.06623387336731, 376.0
21.083509922027588, 403.0
21.100669860839844, 386.0
21.121480226516724, 406.0
21.138918161392212, 403.0
21.157074689865112, 432.0
21.178775548934937, 409.0
21.199098110198975, 435.0
21.217986345291138, 430.0
21.235719680786133, 412.0
21.254180192947388, 417.0
21.272607564926147, 414.0
21.291953802108765, 426.0
21.30954384803772, 413.0
21.32841920852661, 413.0
21.345497131347656, 385.0
21.363091230392456, 400.0
21.380189418792725, 400.0
21.398629903793335, 400.0
21.417569398880005, 393.0
21.434277772903442, 394.0
21.450793981552124, 386.0
21.467464923858643, 375.0
21.483412742614746, 383.0
21.49935817718506, 363.0
21.516064167022705, 367.0
21.532264232635498, 357.0
21.54720687866211, 342.0
21.563231945037842, 336.0
21.577837228775024, 352.0
21.59323763847351, 340.0
21.608099699020386, 352.0
21.623817682266235, 325.0
21.64195203781128, 333.0
21.657487154006958, 327.0
21.671505212783813, 319.0
21.68620991706848, 319.0
21.700055599212646, 297.0
21.71510124206543, 313.0
21.730016469955444, 313.0
21.744323015213013, 308.0
21.7590172290802, 319.0
21.773704767227173, 296.0
21.78790783882141, 297.0
21.801456451416016, 286.0
21.815817832946777, 270.0
21.82944369316101, 293.0
21.84358549118042, 294.0
21.85777521133423, 295.0
21.87264132499695, 293.0
21.886474609375, 303.0
21.90057349205017, 292.0
21.914347171783447, 309.0
21.928998708724976, 287.0
21.943764209747314, 295.0
21.95852828025818, 309.0
21.972809553146362, 290.0
21.98697590827942, 292.0
22.0020911693573, 308.0
22.01714849472046, 313.0
22.033804655075073, 292.0
22.04792070388794, 284.0
22.061930894851685, 304.0
22.07685160636902, 278.0
22.090643167495728, 289.0
22.104905128479004, 283.0
22.11925959587097, 293.0
22.13398003578186, 286.0
22.148348808288574, 299.0
22.163540363311768, 284.0
22.178046941757202, 308.0
22.19855308532715, 290.0
22.21515941619873, 302.0
22.230725288391113, 314.0
22.246246576309204, 325.0
22.262672185897827, 323.0
22.278700351715088, 322.0
22.29620361328125, 338.0
22.312878370285034, 348.0
22.330861568450928, 367.0
22.348345518112183, 403.0
22.366416454315186, 423.0
22.38419222831726, 456.0
22.40171766281128, 397.0
22.42108654975891, 381.0
22.43889617919922, 398.0
22.4559588432312, 420.0
22.474611282348633, 439.0
22.491863012313843, 427.0
22.509642362594604, 422.0
22.526768922805786, 399.0
22.54526162147522, 399.0
22.5625216960907, 421.0
22.58040452003479, 428.0
22.597967624664307, 406.0
22.618077993392944, 379.0
22.634027242660522, 367.0
22.65035080909729, 383.0
22.667306661605835, 405.0
22.684997081756592, 395.0
22.70196032524109, 388.0
22.719922065734863, 399.0
22.73947548866272, 442.0
22.76038885116577, 485.0
22.781747817993164, 518.0
22.8039653301239, 543.0
22.82423734664917, 524.0
22.844927072525024, 480.0
22.862927436828613, 440.0
22.880901098251343, 427.0
22.8982412815094, 404.0
22.914320468902588, 367.0
22.9318528175354, 354.0
22.947286128997803, 349.0
22.961100101470947, 285.0
22.975621938705444, 284.0
22.98790144920349, 245.0
23.00169610977173, 231.0
23.012990474700928, 207.0
23.026066064834595, 231.0
23.0378315448761, 239.0
23.050618886947632, 227.0
23.061606645584106, 204.0
23.07309889793396, 191.0
23.08388614654541, 187.0
23.095943927764893, 174.0
23.107273817062378, 167.0
23.119388103485107, 168.0
23.129573583602905, 155.0
23.140897512435913, 158.0
23.15101671218872, 140.0
23.16278076171875, 148.0
23.172534942626953, 119.0
23.182716369628906, 112.0
23.19187831878662, 115.0
23.202565908432007, 112.0
23.21305227279663, 95.0
23.225281953811646, 99.0
23.234760999679565, 99.0
23.245633363723755, 113.0
23.254976511001587, 99.0
23.265758991241455, 96.0
23.275103330612183, 103.0
23.285590648651123, 89.0
23.29485321044922, 89.0
23.306228637695312, 94.0
23.31633687019348, 117.0
23.326586723327637, 125.0
23.335731029510498, 116.0
23.345893621444702, 123.0
23.35585117340088, 148.0
23.36674213409424, 149.0
23.376298904418945, 156.0
23.386914253234863, 152.0
23.396653413772583, 152.0
23.408380031585693, 142.0
23.419775009155273, 150.0
23.43080735206604, 140.0
23.441303730010986, 129.0
23.45325493812561, 152.0
23.46353244781494, 139.0
23.474127531051636, 147.0
23.48504948616028, 154.0
23.495676040649414, 144.0
23.506752252578735, 150.0
23.51802158355713, 130.0
23.528059005737305, 130.0
23.53831195831299, 107.0
23.548006534576416, 105.0
23.55868124961853, 103.0
23.56812882423401, 101.0
23.578574419021606, 97.0
23.587772846221924, 84.0
23.59748363494873, 84.0
23.606674909591675, 80.0
23.61633539199829, 73.0
23.625627517700195, 76.0
23.635085344314575, 71.0
23.64370608329773, 72.0
23.654501914978027, 76.0
23.664191722869873, 71.0
23.67302656173706, 77.0
23.682447910308838, 69.0
23.691145420074463, 76.0
23.701489210128784, 86.0
23.710205793380737, 76.0
23.720499277114868, 83.0
23.72925639152527, 90.0
23.738969326019287, 87.0
23.747719526290894, 81.0
23.75737500190735, 105.0
23.766392946243286, 107.0
23.77655816078186, 111.0
23.785669326782227, 101.0
23.795544147491455, 96.0
23.804669618606567, 100.0
23.81464195251465, 113.0
23.82485032081604, 120.0
23.836650371551514, 124.0
23.846155881881714, 130.0
23.856810569763184, 140.0
23.86721134185791, 129.0
23.878782749176025, 143.0
23.888678550720215, 142.0
23.899763107299805, 150.0
23.909812688827515, 171.0
23.920856952667236, 170.0
23.931970834732056, 191.0
23.943026304244995, 197.0
23.954267263412476, 218.0
23.966077089309692, 202.0
23.978054761886597, 251.0
23.99053645133972, 257.0
24.00299596786499, 266.0
24.01600408554077, 271.0
24.028932094573975, 288.0
24.043261766433716, 314.0
24.056798934936523, 306.0
24.07209324836731, 330.0
24.08653163909912, 351.0
24.10147738456726, 354.0
24.117157697677612, 382.0
24.136428833007812, 364.0
24.15305233001709, 412.0
24.17283821105957, 375.0
24.189201831817627, 397.0
24.206004858016968, 409.0
24.2231547832489, 418.0
24.244872331619263, 414.0
24.262230157852173, 426.0
24.28152847290039, 447.0
24.300500631332397, 462.0
24.320827960968018, 475.0
24.34035062789917, 477.0
24.36103892326355, 490.0
24.38194179534912, 503.0
24.402257680892944, 489.0
24.424118995666504, 512.0
24.444860219955444, 475.0
24.46460771560669, 473.0
24.484257459640503, 444.0
24.503488779067993, 459.0
24.523351907730103, 462.0
24.541481733322144, 433.0
24.559350728988647, 414.0
24.578259468078613, 424.0
24.596789598464966, 429.0
24.615004539489746, 436.0
24.633915424346924, 430.0
24.65247941017151, 448.0
24.671133279800415, 404.0
24.68925189971924, 414.0
24.706778526306152, 415.0
24.72485613822937, 425.0
24.743277311325073, 424.0
24.760078191757202, 412.0
24.77781105041504, 413.0
24.79434084892273, 394.0
24.812880516052246, 392.0
24.829489707946777, 389.0
24.846085786819458, 377.0
24.863024711608887, 362.0
24.879758596420288, 367.0
24.895418405532837, 343.0
24.91096782684326, 350.0
24.926902055740356, 352.0
24.941969394683838, 319.0
24.956907987594604, 300.0
24.970457315444946, 297.0
24.985587120056152, 263.0
24.99964666366577, 258.0
25.013495683670044, 252.0
25.027040719985962, 237.0
25.039289236068726, 236.0
25.051462173461914, 223.0
25.063458919525146, 213.0
25.076029777526855, 221.0
25.088260650634766, 216.0
25.09955620765686, 204.0
25.11262845993042, 217.0
25.12392234802246, 206.0
25.136202096939087, 203.0
25.149052143096924, 209.0
25.161221981048584, 213.0
25.17244052886963, 210.0
25.18439292907715, 211.0
25.195364952087402, 218.0
25.20713710784912, 219.0
25.218380451202393, 223.0
25.229973554611206, 198.0
25.247613191604614, 213.0
25.261131525039673, 215.0
25.27301597595215, 197.0
25.285733938217163, 207.0
25.300414323806763, 206.0
25.312586545944214, 220.0
25.323364734649658, 198.0
25.336649417877197, 213.0
25.34773564338684, 205.0
25.35911202430725, 218.0
25.37065100669861, 216.0
25.38285493850708, 207.0
25.393884897232056, 218.0
25.4057879447937, 216.0
25.419198513031006, 216.0
25.43087935447693, 214.0
25.44442653656006, 214.0
25.455739498138428, 211.0
25.467061281204224, 196.0
25.478216409683228, 203.0
25.490101099014282, 207.0
25.500826358795166, 190.0
25.512109994888306, 194.0
25.52243208885193, 184.0
25.53365159034729, 179.0
25.543984174728394, 192.0
25.554755687713623, 160.0
25.565309047698975, 169.0
25.576807260513306, 152.0
25.58695697784424, 156.0
25.597758054733276, 152.0
25.607632637023926, 141.0
25.61826729774475, 135.0
25.628926515579224, 135.0
25.641384840011597, 151.0
25.651368856430054, 138.0
25.662391662597656, 151.0
25.67301344871521, 147.0
25.684149265289307, 162.0
25.694887161254883, 166.0
25.707392930984497, 168.0
25.71818971633911, 204.0
25.730717658996582, 203.0
25.741392135620117, 198.0
25.752841472625732, 198.0
25.76335883140564, 195.0
25.775020837783813, 198.0
25.785624742507935, 184.0
25.79658818244934, 178.0
25.80694270133972, 178.0
25.817612648010254, 158.0
25.827934503555298, 164.0
25.840386152267456, 154.0
25.850478649139404, 158.0
25.861979484558105, 148.0
25.871685028076172, 150.0
25.882272481918335, 145.0
25.893472909927368, 153.0
25.905632734298706, 138.0
25.915677547454834, 146.0
25.927815198898315, 131.0
25.937774181365967, 116.0
25.947999477386475, 111.0
25.957506895065308, 128.0
25.96865439414978, 126.0
25.97854447364807, 142.0
25.990381479263306, 156.0
26.000070810317993, 148.0
26.01078510284424, 152.0
26.021000623703003, 143.0
26.033398866653442, 149.0
26.04382586479187, 157.0
26.05639958381653, 166.0
26.067244291305542, 174.0
26.07898473739624, 186.0
26.090200185775757, 196.0
26.102519273757935, 212.0
26.114129304885864, 211.0
26.12625241279602, 230.0
26.137911081314087, 232.0
26.15043592453003, 203.0
26.16123342514038, 182.0
26.172716856002808, 180.0
26.182816743850708, 154.0
26.19349718093872, 122.0
26.203287839889526, 127.0
26.213647603988647, 120.0
26.223371505737305, 118.0
26.234708070755005, 131.0
26.2448513507843, 133.0
26.25873613357544, 135.0
26.273993968963623, 186.0
26.286120176315308, 237.0
26.297178030014038, 219.0
26.309459686279297, 202.0
26.32004714012146, 180.0
26.332382202148438, 188.0
26.343445301055908, 195.0
26.356714487075806, 213.0
26.368469715118408, 209.0
26.381927967071533, 226.0
26.394426107406616, 244.0
26.407044887542725, 219.0
26.42026448249817, 222.0
26.43273687362671, 244.0
26.4436354637146, 210.0
26.455272674560547, 197.0
26.46596932411194, 173.0
26.47684144973755, 177.0
26.486936330795288, 153.0
26.49769616127014, 143.0
26.507928371429443, 136.0
26.51935863494873, 136.0
26.53035831451416, 154.0
26.542405605316162, 141.0
26.553189516067505, 131.0
26.56440258026123, 123.0
26.574356079101562, 130.0
26.586155891418457, 127.0
26.59543251991272, 98.0
26.605673789978027, 97.0
26.615105867385864, 94.0
26.626086711883545, 102.0
26.635770082473755, 121.0
26.646690130233765, 125.0
26.656504154205322, 139.0
26.66938304901123, 136.0
26.67946982383728, 148.0
26.691225051879883, 169.0
26.70175004005432, 163.0
26.71338653564453, 159.0
26.724066972732544, 157.0
26.7363862991333, 142.0
26.746428728103638, 138.0
26.75838351249695, 157.0
26.7689790725708, 182.0
26.78099036216736, 172.0
26.792651891708374, 176.0
26.803892135620117, 161.0
26.8148295879364, 172.0
26.826932430267334, 160.0
26.837675094604492, 167.0
26.850391626358032, 188.0
26.861339569091797, 190.0
26.873029947280884, 201.0
26.88367533683777, 177.0
26.894922256469727, 189.0
26.905277490615845, 177.0
26.91696047782898, 187.0
26.92791247367859, 199.0
26.940390825271606, 211.0
26.9526424407959, 216.0
26.965301275253296, 229.0
26.977842807769775, 235.0
26.990354537963867, 248.0
27.00223731994629, 240.0
27.014317512512207, 243.0
27.026026964187622, 232.0
27.038264989852905, 223.0
27.049686431884766, 212.0
27.062604427337646, 210.0
27.074218034744263, 233.0
27.086430072784424, 238.0
27.09788155555725, 215.0
27.10975980758667, 212.0
27.12064814567566, 203.0
27.134913682937622, 210.0
27.147481441497803, 209.0
27.160090684890747, 198.0
27.171446561813354, 201.0
27.183990240097046, 226.0
27.19514012336731, 213.0
27.208391904830933, 213.0
27.219603538513184, 200.0
27.232436180114746, 169.0
27.24282431602478, 150.0
27.253676414489746, 140.0
27.263794422149658, 139.0
27.27720832824707, 150.0
27.28916311264038, 150.0
27.300121307373047, 162.0
27.31061291694641, 156.0
27.32156229019165, 150.0
27.33203125, 156.0
27.343862295150757, 179.0
27.354323863983154, 194.0
27.366377353668213, 187.0
27.3768630027771, 193.0
27.387810945510864, 159.0
27.398269653320312, 171.0
27.410382986068726, 160.0
27.421207427978516, 157.0
27.431999444961548, 169.0
27.442519664764404, 159.0
27.45250415802002, 164.0
27.463464736938477, 161.0
27.473681211471558, 154.0
27.48538303375244, 158.0
27.495243787765503, 153.0
27.50575852394104, 133.0
27.515169858932495, 124.0
27.52540159225464, 119.0
27.53447413444519, 116.0
27.544678211212158, 115.0
27.554158449172974, 114.0
27.56464195251465, 115.0
27.573622703552246, 110.0
27.583378553390503, 109.0
27.592905044555664, 103.0
27.60290551185608, 119.0
27.61190414428711, 115.0
27.621845483779907, 117.0
27.631656169891357, 125.0
27.643304109573364, 143.0
27.65415120124817, 152.0
27.664803743362427, 169.0
27.675038814544678, 173.0
27.687663316726685, 164.0
27.69884443283081, 169.0
27.70986580848694, 170.0
27.721280813217163, 196.0
27.732997179031372, 192.0
27.74546718597412, 194.0
27.75875496864319, 227.0
27.771244049072266, 259.0
27.78570866584778, 296.0
27.799487829208374, 279.0
27.81311559677124, 288.0
27.8259699344635, 272.0
27.840185165405273, 228.0
27.85062599182129, 156.0
27.862390279769897, 126.0
27.871954441070557, 114.0
27.88315224647522, 102.0
27.8922221660614, 100.0
27.9026038646698, 89.0
27.911498308181763, 70.0
27.921469926834106, 54.0
27.930095672607422, 51.0
27.94114661216736, 72.0
27.950004816055298, 63.0
27.96038317680359, 56.0
27.968936443328857, 35.0
27.979494094848633, 33.0
27.988602876663208, 40.0
27.999208211898804, 43.0
28.009412050247192, 39.0
28.01780366897583, 40.0
28.027410745620728, 33.0
28.039611339569092, 38.0
28.048425436019897, 45.0
28.057199239730835, 51.0
28.06632661819458, 52.0
28.074558973312378, 50.0
28.083913326263428, 50.0
28.09206223487854, 48.0
28.102842569351196, 60.0
28.111260414123535, 65.0
28.12040615081787, 55.0
28.128567934036255, 54.0
28.139110803604126, 53.0
28.147278308868408, 48.0
28.156471967697144, 46.0
28.16496968269348, 48.0
28.174004793167114, 44.0
28.182222843170166, 42.0
28.19278860092163, 43.0
28.20159888267517, 45.0
28.21225357055664, 49.0
28.2214298248291, 44.0
28.230399131774902, 44.0
28.238653421401978, 45.0
28.24885392189026, 43.0
28.256911993026733, 49.0
28.26597762107849, 39.0
28.274169921875, 41.0
28.28328275680542, 45.0
28.29363989830017, 46.0
28.305149793624878, 45.0
28.31373906135559, 47.0
28.323434829711914, 41.0
28.331552505493164, 49.0
28.340447664260864, 31.0
28.34837770462036, 38.0
28.35867476463318, 31.0
28.367190837860107, 31.0
28.375849723815918, 30.0
28.38384509086609, 35.0
28.39245891571045, 30.0
28.400694131851196, 34.0
28.409560441970825, 32.0
28.418514251708984, 28.0
28.429896354675293, 37.0
28.4386944770813, 25.0
28.448269367218018, 30.0
28.457284927368164, 23.0
28.466733932495117, 29.0
28.475656270980835, 25.0
28.485092163085938, 19.0
28.493572235107422, 22.0
28.502976655960083, 21.0
28.510956525802612, 17.0
28.51934003829956, 13.0
28.527122735977173, 18.0
28.534756422042847, 17.0
